#Wave		#Intensity
3204.375000	105.192429
3203.544922	-249.352798
3202.713867	-97.832863
3201.882813	24.649691
3201.051758	-192.209488
3200.220703	199.954178
3199.389648	49.851009
3198.558594	131.712799
3197.726563	-6.707674
3196.895508	205.568542
3196.063477	38.234177
3195.231445	53.470798
3194.399414	-102.173340
3193.567383	-26.079679
3192.734375	38.418785
3191.902344	62.378002
3191.069336	106.600327
3190.237305	-115.438408
3189.404297	357.073975
3188.571289	-64.544258
3187.738281	46.237602
3186.905273	9.487418
3186.071289	65.293236
3185.238281	242.521454
3184.404297	156.632858
3183.570313	47.654644
3182.736328	77.433037
3181.902344	179.441223
3181.068359	188.974640
3180.233398	-6.575824
3179.399414	17.432556
3178.564453	3.896254
3177.729492	204.013382
3176.895508	2.825789
3176.060547	55.688011
3175.224609	143.162155
3174.389648	170.019867
3173.554688	-5.064712
3172.718750	91.031830
3171.882813	34.254688
3171.046875	-57.106438
3170.210938	50.483250
3169.375000	204.156219
3168.539063	202.151413
3167.702148	142.514114
3166.866211	-49.634365
3166.029297	216.291061
3165.192383	24.187820
3164.355469	-18.114317
3163.518555	359.956635
3162.681641	90.187462
3161.843750	209.066879
3161.006836	172.503403
3160.168945	-33.816349
3159.331055	50.490482
3158.493164	209.551559
3157.655273	121.225044
3156.817383	-53.342831
3155.979492	134.391647
3155.140625	80.597824
3154.302734	196.385513
3153.463867	122.470634
3152.625000	278.426544
3151.786133	307.925873
3150.947266	-70.448570
3150.107422	-138.557709
3149.268555	-25.758392
3148.428711	181.733566
3147.588867	41.835369
3146.749023	-109.505898
3145.909180	-8.294307
3145.069336	24.020760
3144.229492	24.763363
3143.388672	214.788361
3142.548828	-99.954262
3141.708008	150.222900
3140.867188	222.576019
3140.026367	77.063957
3139.185547	120.728577
3138.344727	-4.682201
3137.502930	96.259697
3136.662109	31.025900
3135.820313	51.720711
3134.978516	52.354317
3134.136719	158.907089
3133.294922	93.666039
3132.453125	74.227760
3131.611328	200.726944
3130.768555	124.032997
3129.925781	-172.917023
3129.083984	47.916504
3128.241211	79.923851
3127.397461	123.347122
3126.554688	129.581100
3125.711914	92.926857
3124.868164	122.004738
3124.025391	159.635422
3123.181641	191.528381
3122.337891	169.126678
3121.494141	-4.650770
3120.650391	47.209663
3119.805664	170.420090
3118.961914	-126.058037
3118.117188	179.788376
3117.272461	57.460068
3116.428711	60.706886
3115.583008	-7.380851
3114.738281	-35.524334
3113.893555	50.407459
3113.047852	45.052341
3112.203125	53.943291
3111.357422	136.933075
3110.511719	71.681740
3109.666016	143.221542
3108.820313	29.532007
3107.974609	1.328966
3107.127930	166.802902
3106.282227	235.388382
3105.435547	130.254395
3104.588867	127.629478
3103.742188	199.000977
3102.895508	136.578918
3102.048828	14.412165
3101.201172	-59.362572
3100.354492	34.706036
3099.506836	202.678482
3098.659180	-121.363113
3097.811523	205.777634
3096.963867	29.639832
3096.116211	32.611256
3095.267578	120.824646
3094.419922	-52.404221
3093.571289	30.091429
3092.722656	-140.246780
3091.874023	38.774609
3091.025391	18.962305
3090.176758	-49.116215
3089.328125	135.451248
3088.478516	30.458509
3087.628906	64.535751
3086.780273	178.035843
3085.930664	-29.065010
3085.081055	101.410271
3084.230469	-31.898836
3083.380859	78.668480
3082.530273	13.425239
3081.680664	98.421936
3080.830078	47.348522
3079.979492	55.786457
3079.128906	7.552264
3078.278320	-52.006279
3077.426758	58.375248
3076.576172	44.118557
3075.724609	-40.924397
3074.873047	-83.486534
3074.022461	154.164108
3073.169922	-72.375832
3072.318359	-112.106056
3071.466797	-123.541458
3070.614258	-101.039734
3069.762695	-259.547180
3068.910156	170.129807
3068.057617	-149.533585
3067.205078	-95.977623
3066.352539	73.430626
3065.500000	73.230377
3064.646484	84.323662
3063.793945	-110.807007
3062.940430	72.588570
3062.086914	241.800064
3061.233398	176.599106
3060.379883	-18.445770
3059.525391	-142.870071
3058.671875	74.218948
3057.817383	-55.833847
3056.963867	48.312569
3056.109375	-152.224518
3055.254883	-48.107502
3054.399414	98.266754
3053.544922	21.859430
3052.690430	58.229748
3051.834961	215.776733
3050.979492	-15.619008
3050.125000	-128.604233
3049.268555	82.409431
3048.413086	84.919891
3047.557617	5.755882
3046.702148	177.216400
3045.845703	317.648712
3044.989258	80.843597
3044.132813	226.869583
3043.276367	285.613586
3042.419922	40.480038
3041.563477	28.905684
3040.707031	84.834045
3039.849609	-109.537025
3038.992188	-140.771225
3038.134766	-20.190651
3037.277344	139.700989
3036.419922	164.644104
3035.562500	321.641815
3034.705078	-192.856476
3033.846680	-58.325783
3032.988281	-53.029976
3032.129883	117.939323
3031.271484	92.321571
3030.413086	-3.465080
3029.554688	24.272913
3028.696289	248.438080
3027.836914	309.795685
3026.977539	320.639435
3026.119141	157.580429
3025.259766	87.119698
3024.399414	263.429321
3023.540039	307.920746
3022.680664	220.657089
3021.820313	290.367493
3020.959961	147.094666
3020.100586	312.058136
3019.240234	163.230591
3018.378906	210.507782
3017.518555	316.581390
3016.658203	358.227417
3015.796875	461.448486
3014.936523	214.770248
3014.075195	365.563934
3013.213867	465.947449
3012.352539	188.625046
3011.490234	98.805450
3010.628906	459.290619
3009.766602	380.651062
3008.905273	444.629120
3008.042969	366.026794
3007.180664	455.150391
3006.318359	636.466980
3005.455078	502.008423
3004.592773	364.807129
3003.730469	191.346207
3002.867188	316.758270
3002.003906	590.123047
3001.140625	355.309814
3000.277344	491.821747
2999.414063	388.284027
2998.549805	494.064636
2997.686523	521.701599
2996.822266	660.916138
2995.958008	470.987000
2995.093750	582.295349
2994.229492	687.999512
2993.365234	475.881989
2992.500000	511.904480
2991.635742	645.463318
2990.770508	687.036682
2989.905273	436.090790
2989.040039	502.772369
2988.174805	393.989807
2987.309570	602.688599
2986.443359	563.545410
2985.578125	485.455505
2984.711914	797.044556
2983.845703	646.612854
2982.979492	624.223938
2982.113281	771.545044
2981.247070	476.591003
2980.380859	618.349304
2979.513672	420.854187
2978.646484	648.778870
2977.779297	812.711304
2976.912109	695.911560
2976.044922	620.842712
2975.177734	809.741150
2974.310547	676.369812
2973.442383	684.697632
2972.574219	915.185791
2971.706055	462.611725
2970.837891	715.295959
2969.969727	942.932068
2969.101563	773.672546
2968.233398	823.677673
2967.364258	612.906799
2966.495117	640.759338
2965.625977	729.630066
2964.756836	887.807190
2963.887695	851.881775
2963.018555	827.070679
2962.149414	708.051880
2961.279297	697.157837
2960.409180	1065.853271
2959.539063	863.796570
2958.668945	531.645203
2957.798828	789.466675
2956.928711	1008.458374
2956.057617	820.447937
2955.187500	795.821716
2954.316406	834.871460
2953.445313	882.225891
2952.574219	832.753418
2951.703125	1184.400391
2950.832031	720.080200
2949.959961	773.022766
2949.088867	1011.205994
2948.216797	804.274475
2947.344727	868.288452
2946.472656	1017.964905
2945.600586	733.824463
2944.728516	880.750122
2943.855469	842.587341
2942.982422	1180.037842
2942.110352	838.145996
2941.237305	904.973877
2940.364258	814.463318
2939.491211	886.832214
2938.617188	887.452637
2937.744141	932.237244
2936.870117	756.345947
2935.996094	787.386536
2935.122070	898.408875
2934.248047	697.855530
2933.374023	960.517639
2932.500000	853.774292
2931.625000	895.900940
2930.750977	750.669312
2929.875977	894.774780
2929.000977	727.597412
2928.125977	833.146118
2927.250977	657.815552
2926.375000	892.783752
2925.500000	629.457703
2924.624023	985.498108
2923.748047	686.513306
2922.872070	786.596191
2921.996094	870.164917
2921.120117	840.958740
2920.244141	875.035461
2919.367188	760.646484
2918.490234	748.036804
2917.614258	1029.564575
2916.737305	618.464905
2915.860352	828.526733
2914.982422	717.103088
2914.105469	1023.270386
2913.227539	766.336304
2912.350586	775.873230
2911.472656	801.904724
2910.594727	786.776062
2909.716797	714.037231
2908.837891	907.540527
2907.959961	900.706604
2907.081055	762.218567
2906.203125	813.061523
2905.324219	704.849182
2904.445313	473.306580
2903.566406	836.788330
2902.686523	739.666443
2901.807617	971.484253
2900.927734	622.318848
2900.048828	802.075623
2899.168945	759.911926
2898.289063	827.344421
2897.409180	637.364380
2896.528320	598.063843
2895.648438	676.518921
2894.767578	746.764099
2893.886719	633.652771
2893.006836	799.703491
2892.125000	558.090698
2891.244141	754.243530
2890.363281	389.696564
2889.481445	700.715698
2888.600586	648.031921
2887.718750	414.974030
2886.836914	660.324036
2885.955078	829.104492
2885.073242	516.976563
2884.190430	612.021912
2883.308594	881.872375
2882.425781	455.271301
2881.542969	577.668396
2880.661133	525.327820
2879.777344	459.386139
2878.894531	445.347534
2878.011719	543.219482
2877.127930	428.282013
2876.245117	807.150024
2875.361328	465.887543
2874.477539	541.990967
2873.593750	634.457397
2872.708984	702.388367
2871.825195	511.387634
2870.940430	513.968811
2870.056641	407.586060
2869.171875	524.661316
2868.287109	377.512054
2867.402344	502.781860
2866.516602	690.671082
2865.631836	505.536926
2864.746094	358.602417
2863.861328	350.548889
2862.975586	445.934387
2862.089844	364.467712
2861.204102	351.063965
2860.317383	460.092651
2859.431641	653.416443
2858.544922	368.160095
2857.658203	341.292053
2856.771484	284.561340
2855.884766	396.376190
2854.998047	361.452454
2854.111328	486.861450
2853.223633	177.640884
2852.336914	308.529846
2851.449219	450.270813
2850.561523	258.042877
2849.673828	337.369507
2848.786133	519.837585
2847.897461	289.791718
2847.009766	271.484222
2846.121094	453.966553
2845.232422	508.935211
2844.343750	341.534698
2843.455078	315.217194
2842.566406	172.361572
2841.676758	186.803848
2840.788086	488.550812
2839.898438	245.566406
2839.008789	121.902382
2838.119141	377.554810
2837.229492	137.506134
2836.339844	154.826645
2835.449219	153.221664
2834.559570	213.908493
2833.668945	309.795868
2832.778320	67.398140
2831.887695	149.809082
2830.997070	183.526718
2830.105469	157.757538
2829.214844	275.362946
2828.323242	176.636871
2827.432617	264.520630
2826.541016	301.048492
2825.649414	272.728729
2824.756836	325.520905
2823.865234	-5.344793
2822.972656	136.682739
2822.081055	292.196808
2821.188477	-60.014027
2820.295898	225.151031
2819.403320	-132.273865
2818.510742	309.427063
2817.617188	73.615082
2816.724609	159.012939
2815.831055	42.070724
2814.937500	200.342163
2814.043945	26.853588
2813.150391	-30.594254
2812.256836	-36.766052
2811.362305	-2.465405
2810.467773	-132.560608
2809.574219	246.743973
2808.679688	57.432106
2807.785156	-231.466171
2806.890625	201.635025
2805.995117	-73.664398
2805.100586	106.216888
2804.205078	92.230736
2803.309570	150.957779
2802.414063	18.607954
2801.518555	230.770065
2800.623047	15.103223
2799.727539	-41.750034
2798.831055	43.998909
2797.934570	-26.222799
2797.039063	16.529442
2796.142578	164.147476
2795.245117	-26.922398
2794.348633	-40.534153
2793.452148	131.291336
2792.554688	72.048943
2791.657227	37.030838
2790.760742	128.276123
2789.863281	329.621399
2788.964844	87.937752
2788.067383	104.058281
2787.169922	47.735760
2786.271484	281.286560
2785.373047	-102.321617
2784.474609	-13.628860
2783.576172	-67.093262
2782.677734	126.211853
2781.779297	-10.323932
2780.879883	73.053413
2779.980469	-1.715906
2779.082031	65.604073
2778.182617	210.644653
2777.282227	170.808167
2776.382813	47.966965
2775.483398	85.891762
2774.583008	40.823124
2773.682617	65.410995
2772.783203	148.906754
2771.882813	-51.306904
2770.981445	232.956528
2770.081055	217.472275
2769.180664	108.386269
2768.279297	106.361145
2767.377930	230.061279
2766.476563	399.205353
2765.575195	357.113525
2764.673828	443.370728
2763.772461	56.567646
2762.870117	145.577042
2761.967773	362.830688
2761.066406	208.716354
2760.164063	185.559784
2759.261719	122.380562
2758.358398	224.796707
2757.456055	156.345367
2756.552734	21.218723
2755.650391	147.693069
2754.747070	386.228302
2753.843750	232.533264
2752.940430	276.306122
2752.036133	312.094727
2751.132813	153.230759
2750.228516	319.721252
2749.324219	328.904816
2748.419922	116.893661
2747.515625	568.523621
2746.611328	316.626526
2745.707031	357.874237
2744.801758	388.486664
2743.897461	216.710083
2742.992188	226.083206
2742.086914	349.954193
2741.181641	292.807312
2740.275391	179.819626
2739.370117	274.442291
2738.463867	544.658569
2737.558594	431.752441
2736.652344	385.404572
2735.746094	267.296936
2734.839844	340.685242
2733.932617	507.122772
2733.026367	359.887390
2732.119141	276.509613
2731.211914	264.923218
2730.304688	107.249207
2729.397461	475.578217
2728.490234	190.490250
2727.583008	240.091583
2726.674805	382.628052
2725.767578	296.848846
2724.859375	203.165680
2723.951172	427.968201
2723.042969	305.153778
2722.133789	482.168488
2721.225586	354.124603
2720.316406	239.411591
2719.407227	246.723694
2718.499023	325.627136
2717.588867	497.310364
2716.679688	443.689148
2715.770508	559.689148
2714.860352	471.683441
2713.951172	460.538818
2713.041016	436.183136
2712.130859	274.159119
2711.220703	501.403107
2710.310547	495.645447
2709.399414	349.640198
2708.489258	452.448181
2707.578125	473.228027
2706.666992	562.801575
2705.755859	422.251740
2704.844727	369.038269
2703.933594	313.217712
2703.021484	376.409393
2702.109375	318.008362
2701.198242	415.567780
2700.286133	576.538452
2699.374023	240.783173
2698.460938	568.193848
2697.548828	245.791824
2696.635742	229.842606
2695.723633	404.008118
2694.810547	390.715027
2693.897461	570.120850
2692.984375	506.701050
2692.071289	263.896881
2691.157227	377.344513
2690.243164	179.524704
2689.330078	765.046936
2688.416016	577.810852
2687.501953	306.287323
2686.587891	385.454651
2685.672852	245.871094
2684.758789	675.527222
2683.843750	575.494629
2682.928711	533.464844
2682.013672	488.832214
2681.098633	633.834900
2680.183594	533.939575
2679.267578	370.919250
2678.352539	394.840607
2677.436523	176.661133
2676.520508	300.632813
2675.604492	566.645081
2674.688477	498.524048
2673.772461	267.381744
2672.855469	396.585236
2671.938477	499.470337
2671.022461	505.067169
2670.105469	360.872620
2669.187500	340.255676
2668.270508	529.845093
2667.353516	464.569458
2666.435547	394.082886
2665.517578	552.106873
2664.600586	526.285767
2663.682617	261.594116
2662.763672	346.113831
2661.845703	543.461731
2660.927734	389.143646
2660.008789	444.780579
2659.089844	319.416229
2658.170898	296.391235
2657.251953	412.365631
2656.333008	234.667358
2655.413086	251.032745
2654.494141	201.871445
2653.574219	344.047913
2652.654297	339.460266
2651.734375	573.281128
2650.814453	571.300476
2649.894531	550.998535
2648.973633	310.772827
2648.053711	243.417679
2647.132813	312.217590
2646.211914	362.684845
2645.291016	266.608337
2644.370117	351.099213
2643.448242	608.229919
2642.527344	582.807251
2641.605469	293.292603
2640.683594	479.740204
2639.761719	328.906769
2638.839844	272.226624
2637.917969	273.066864
2636.995117	336.634644
2636.072266	368.839630
2635.150391	252.147141
2634.227539	302.653412
2633.304688	186.033691
2632.380859	429.756958
2631.458008	352.326202
2630.534180	264.496857
2629.611328	260.198730
2628.687500	357.672607
2627.763672	515.120117
2626.839844	75.238289
2625.915039	323.976685
2624.991211	158.057877
2624.066406	232.048004
2623.141602	165.267746
2622.216797	346.094879
2621.291992	396.585876
2620.367188	-170.380508
2619.442383	500.139862
2618.516602	292.769348
2617.590820	252.126511
2616.665039	120.377182
2615.739258	264.609070
2614.813477	34.007584
2613.887695	342.159454
2612.960938	-86.102989
2612.035156	242.788513
2611.108398	282.872772
2610.181641	263.133606
2609.254883	191.401825
2608.328125	111.898026
2607.400391	55.825611
2606.473633	322.030151
2605.545898	294.531982
2604.618164	131.946671
2603.690430	273.339478
2602.762695	180.940689
2601.834961	140.509933
2600.906250	203.957657
2599.977539	-36.336868
2599.049805	315.216522
2598.121094	137.268036
2597.191406	86.525505
2596.262695	155.127487
2595.333984	91.424866
2594.404297	126.300766
2593.474609	283.036774
2592.545898	131.200638
2591.615234	28.681273
2590.685547	232.009354
2589.755859	230.560196
2588.825195	-74.010643
2587.895508	230.262558
2586.964844	213.282898
2586.034180	131.568314
2585.103516	26.577639
2584.171875	110.607048
2583.241211	91.068581
2582.309570	81.894600
2581.378906	77.888763
2580.447266	-3.719705
2579.515625	152.667236
2578.583008	125.388725
2577.651367	61.908588
2576.719727	34.642147
2575.787109	74.599411
2574.854492	24.083525
2573.921875	203.566986
2572.989258	-56.236492
2572.055664	-158.371597
2571.123047	-35.775787
2570.189453	58.377724
2569.256836	98.267715
2568.323242	104.589119
2567.389648	-162.697662
2566.455078	-66.008446
2565.521484	-178.368500
2564.586914	3.420971
2563.653320	-31.537369
2562.718750	-138.694168
2561.784180	-21.478611
2560.849609	111.163826
2559.914063	114.875877
2558.979492	7.747606
2558.043945	-16.879719
2557.108398	-126.529984
2556.172852	-174.323456
2555.237305	-165.440948
2554.301758	18.550982
2553.365234	53.144642
2552.429688	-102.795395
2551.493164	70.791763
2550.556641	-159.737839
2549.620117	-14.516159
2548.683594	66.333595
2547.746094	165.164017
2546.809570	-18.961962
2545.872070	64.408058
2544.934570	196.594040
2543.997070	-0.313325
2543.059570	0.744408
2542.122070	19.782728
2541.183594	136.452011
2540.246094	-106.587982
2539.307617	-221.121338
2538.369141	149.751114
2537.430664	55.739166
2536.492188	-4.876042
2535.552734	-57.771347
2534.614258	76.685783
2533.674805	-40.373802
2532.735352	29.886610
2531.795898	-48.666904
2530.856445	75.413765
2529.916016	-77.498466
2528.976563	-4.751402
2528.036133	-26.879366
2527.095703	-23.379555
2526.155273	-78.832176
2525.214844	175.757751
2524.274414	94.651833
2523.333984	190.302063
2522.392578	-31.648205
2521.451172	15.326349
2520.509766	41.792988
2519.568359	-52.068722
2518.626953	125.380737
2517.684570	-50.363819
2516.743164	-21.388107
2515.800781	-110.098869
2514.858398	97.898483
2513.916016	-149.374695
2512.973633	-151.122620
2512.031250	-4.610074
2511.087891	31.942839
2510.145508	-41.426361
2509.202148	-73.893166
2508.258789	13.711529
2507.315430	114.046783
2506.371094	7.476399
2505.427734	-12.259809
2504.483398	159.485764
2503.539063	-69.604988
2502.595703	158.209427
2501.650391	56.765553
2500.706055	-75.282158
2499.761719	-79.750648
2498.816406	155.529419
2497.871094	140.803513
2496.926758	11.323965
2495.981445	45.035961
2495.035156	15.007704
2494.089844	84.359291
2493.144531	107.807869
2492.198242	59.907417
2491.251953	-3.274218
2490.305664	109.279457
2489.359375	-244.209991
2488.413086	-17.112764
2487.465820	186.992218
2486.518555	-3.484346
2485.572266	175.066559
2484.625000	-5.199350
2483.677734	99.496841
2482.729492	8.300751
2481.782227	56.981377
2480.833984	-49.464886
2479.886719	52.565025
2478.938477	-0.498982
2477.990234	-145.053650
2477.041992	22.967323
2476.092773	-131.730988
2475.144531	43.819889
2474.195313	-1.654407
2473.246094	-19.197994
2472.296875	-8.823659
2471.347656	-26.393795
2470.398438	143.844437
2469.448242	55.173126
2468.499023	4.565905
2467.548828	-15.593655
2466.598633	-23.080975
2465.648438	-48.335590
2464.697266	147.005539
2463.747070	-121.681892
2462.795898	-37.958347
2461.845703	-68.332832
2460.894531	271.248383
2459.943359	68.523674
2458.991211	-101.215797
2458.040039	-32.849960
2457.088867	78.524673
2456.136719	-10.168004
2455.184570	225.178680
2454.232422	197.199402
2453.280273	35.087467
2452.327148	-121.923256
2451.375000	168.868179
2450.421875	67.495987
2449.468750	49.595287
2448.515625	3.866207
2447.562500	-62.092205
2446.609375	-14.299547
2445.655273	63.792370
2444.702148	-141.181122
2443.748047	-5.023018
2442.793945	-83.646378
2441.839844	97.880859
2440.885742	105.085968
2439.930664	-84.663155
2438.976563	61.374062
2438.021484	43.287933
2437.066406	68.089348
2436.111328	-25.727121
2435.156250	97.425865
2434.200195	33.869202
2433.245117	-105.351585
2432.289063	100.910683
2431.333008	-81.169388
2430.376953	109.855904
2429.420898	-49.524235
2428.464844	-113.116501
2427.507813	-50.729069
2426.551758	-51.364910
2425.594727	-24.310751
2424.637695	-42.613987
2423.680664	-8.058358
2422.722656	66.750000
2421.765625	0.554437
2420.807617	60.194962
2419.849609	107.214134
2418.892578	-19.397142
2417.933594	-55.424248
2416.975586	112.244286
2416.017578	23.354279
2415.058594	14.929308
2414.099609	-66.411751
2413.140625	-7.003403
2412.181641	92.570320
2411.222656	56.415833
2410.263672	118.222542
2409.304688	39.334663
2408.343750	-89.763458
2407.384766	110.066742
2406.423828	-9.002433
2405.464844	160.585266
2404.503906	-21.237318
2403.542969	75.497658
2402.582031	-43.576550
2401.621094	-87.382324
2400.660156	-108.624290
2399.699219	108.334251
2398.738281	26.851664
2397.777344	18.068060
2396.816406	149.618668
2395.853516	-89.759346
2394.892578	-38.454491
2393.929688	75.447472
2392.968750	-88.737663
2392.005859	17.577982
2391.042969	118.828194
2390.080078	-27.817116
2389.117188	78.368584
2388.154297	46.852570
2387.191406	75.377495
2386.228516	131.390137
2385.263672	122.335106
2384.300781	-1.794133
2383.337891	111.648758
2382.373047	-17.474722
2381.408203	155.890793
2380.445313	-5.743533
2379.480469	150.024826
2378.515625	-4.096761
2377.550781	54.148552
2376.585938	9.945814
2375.621094	58.134857
2374.656250	-38.534321
2373.691406	101.969528
2372.724609	142.571365
2371.759766	140.701462
2370.792969	121.351334
2369.828125	-162.476791
2368.861328	70.120026
2367.894531	78.155380
2366.927734	36.293331
2365.962891	-110.301392
2364.996094	161.926086
2364.027344	20.314993
2363.060547	-1.667395
2362.093750	173.167679
2361.126953	93.824608
2360.158203	-0.451457
2359.191406	87.065964
2358.222656	107.311920
2357.255859	-89.068932
2356.287109	8.315303
2355.318359	-41.189590
2354.349609	3.853904
2353.380859	143.398926
2352.412109	24.176918
2351.443359	31.811935
2350.474609	114.020294
2349.505859	71.866463
2348.535156	260.894318
2347.566406	-32.346195
2346.595703	-29.787405
2345.626953	2.555387
2344.656250	171.503571
2343.685547	345.341064
2342.714844	99.403282
2341.744141	116.720078
2340.773438	119.112259
2339.802734	-82.057846
2338.832031	31.999334
2337.861328	-114.547226
2336.888672	-35.294353
2335.917969	93.513153
2334.945313	36.251396
2333.974609	102.965332
2333.001953	256.417572
2332.029297	325.512726
2331.056641	434.218109
2330.085938	213.269592
2329.113281	212.892822
2328.138672	289.296173
2327.166016	132.816788
2326.193359	8.560088
2325.220703	20.505606
2324.246094	220.581284
2323.273438	-54.688820
2322.298828	58.667797
2321.324219	226.401978
2320.351563	82.321869
2319.376953	178.215622
2318.402344	-2.946528
2317.427734	-28.284678
2316.453125	50.204639
2315.478516	69.316879
2314.503906	14.252273
2313.527344	124.759056
2312.552734	-93.415009
2311.576172	-57.083611
2310.601563	-65.252701
2309.625000	-16.635563
2308.648438	-131.022247
2307.673828	-15.804146
2306.697266	215.372055
2305.720703	31.833158
2304.744141	65.476685
2303.767578	-14.401919
2302.789063	1.931415
2301.812500	52.760632
2300.835938	-17.280264
2299.857422	68.013351
2298.880859	74.367607
2297.902344	26.479237
2296.923828	57.442074
2295.945313	48.950508
2294.968750	47.824669
2293.990234	-123.271286
2293.011719	-25.899595
2292.031250	24.639612
2291.052734	43.131294
2290.074219	32.057106
2289.095703	180.934204
2288.115234	14.780140
2287.136719	-13.570924
2286.156250	63.844261
2285.175781	23.158150
2284.195313	63.612999
2283.216797	-48.408024
2282.236328	-3.081179
2281.255859	20.088968
2280.273438	291.435547
2279.292969	31.947739
2278.312500	-151.320602
2277.332031	-32.433849
2276.349609	47.104053
2275.369141	-298.197388
2274.386719	7.177298
2273.404297	165.153549
2272.423828	151.258575
2271.441406	-159.559326
2270.458984	130.787552
2269.476563	-123.547394
2268.494141	2.332871
2267.509766	52.137417
2266.527344	13.636291
2265.544922	220.266617
2264.560547	5.242720
2263.578125	42.675217
2262.593750	70.277763
2261.611328	-73.636192
2260.626953	135.189804
2259.642578	47.601734
2258.658203	111.833572
2257.673828	273.950836
2256.689453	83.517059
2255.705078	-38.347549
2254.718750	113.870239
2253.734375	229.316544
2252.750000	48.721420
2251.763672	173.887527
2250.779297	-18.904980
2249.792969	133.086777
2248.806641	99.223892
2247.820313	31.134865
2246.833984	160.991653
2245.847656	-21.960051
2244.861328	-99.824654
2243.875000	188.696762
2242.888672	135.206833
2241.900391	-11.067876
2240.914063	123.437279
2239.925781	43.080132
2238.939453	218.983566
2237.951172	165.441299
2236.962891	21.628872
2235.976563	302.284424
2234.988281	231.627274
2234.000000	102.451187
2233.011719	163.472580
2232.021484	90.383492
2231.033203	263.467072
2230.044922	197.658066
2229.054688	124.545898
2228.066406	131.829422
2227.076172	260.880707
2226.087891	187.738586
2225.097656	204.697357
2224.107422	-14.513801
2223.117188	-29.205803
2222.126953	243.267441
2221.136719	-12.393789
2220.146484	21.528389
2219.154297	72.451653
2218.164063	-112.574821
2217.173828	86.651840
2216.181641	161.801651
2215.191406	40.005058
2214.199219	107.813393
2213.207031	-40.696590
2212.214844	202.008423
2211.222656	80.221977
2210.230469	36.183933
2209.238281	48.000347
2208.246094	103.502365
2207.253906	166.253098
2206.259766	44.494488
2205.267578	138.752655
2204.273438	46.125175
2203.281250	65.111412
2202.287109	42.841061
2201.292969	158.804825
2200.300781	73.446678
2199.306641	106.903450
2198.312500	23.977472
2197.318359	6.503808
2196.322266	-78.830551
2195.328125	213.820923
2194.333984	-4.787869
2193.337891	43.093952
2192.343750	98.209084
2191.347656	114.552284
2190.351563	-108.794579
2189.357422	-44.042004
2188.361328	54.557533
2187.365234	97.457565
2186.369141	89.523926
2185.373047	-78.069939
2184.376953	85.715141
2183.378906	-6.887331
2182.382813	96.362000
2181.384766	146.383606
2180.388672	-35.650425
2179.390625	-21.897844
2178.394531	-41.989704
2177.396484	24.879049
2176.398438	98.959122
2175.400391	107.798462
2174.402344	-144.147232
2173.404297	14.380924
2172.406250	-70.944099
2171.406250	80.255920
2170.408203	-101.594002
2169.408203	-18.014896
2168.410156	-50.259388
2167.410156	187.611847
2166.412109	189.079193
2165.412109	50.699551
2164.412109	-157.552444
2163.412109	-78.938385
2162.412109	243.025223
2161.412109	-32.652225
2160.412109	65.140717
2159.410156	-102.052475
2158.410156	-57.282795
2157.408203	-144.965866
2156.408203	-49.670166
2155.406250	-38.660519
2154.404297	162.454910
2153.404297	0.158891
2152.402344	328.687927
2151.400391	132.722046
2150.398438	6.555268
2149.396484	144.926498
2148.392578	54.842869
2147.390625	214.775299
2146.388672	127.093239
2145.384766	104.312569
2144.382813	134.387222
2143.378906	-10.919748
2142.375000	110.415077
2141.371094	22.775606
2140.367188	218.478851
2139.363281	82.819839
2138.359375	225.625351
2137.355469	-87.596680
2136.351563	146.351608
2135.347656	61.139275
2134.341797	242.198517
2133.337891	-20.489998
2132.332031	146.119141
2131.326172	187.996307
2130.322266	26.100235
2129.316406	41.604164
2128.310547	155.342773
2127.304688	98.928017
2126.298828	-0.594602
2125.292969	158.579239
2124.285156	99.774651
2123.279297	12.250918
2122.271484	104.292419
2121.265625	-21.513868
2120.257813	-1.305016
2119.251953	100.243805
2118.244141	96.489120
2117.236328	186.014801
2116.228516	96.138824
2115.220703	-34.363293
2114.212891	2.524177
2113.205078	39.393642
2112.195313	212.472397
2111.187500	-20.738737
2110.179688	-62.744400
2109.169922	17.085527
2108.160156	-36.865677
2107.152344	30.983068
2106.142578	82.090569
2105.132813	123.627724
2104.123047	17.163019
2103.113281	263.918732
2102.103516	16.681107
2101.093750	77.266663
2100.082031	30.490978
2099.072266	133.972260
2098.060547	-1.030545
2097.050781	-69.239029
2096.039063	-1.561270
2095.027344	23.191311
2094.017578	119.418747
2093.005859	70.278351
2091.994141	-9.816190
2090.982422	55.394524
2089.968750	-98.499115
2088.957031	-111.871902
2087.945313	-70.491356
2086.931641	137.479004
2085.919922	-66.313118
2084.906250	13.098055
2083.894531	-40.739361
2082.880859	-23.205778
2081.867188	60.906994
2080.853516	54.634712
2079.839844	-60.996639
2078.826172	30.204458
2077.812500	90.477371
2076.796875	-174.809250
2075.783203	-69.386513
2074.769531	-123.151901
2073.753906	-129.402267
2072.738281	32.945583
2071.724609	-49.305855
2070.708984	-164.766083
2069.693359	-106.928551
2068.677734	31.571621
2067.662109	-100.456879
2066.646484	-78.246368
2065.630859	36.459122
2064.613281	-195.110443
2063.597656	-51.972298
2062.580078	22.367075
2061.564453	-21.833178
2060.546875	137.792511
2059.529297	-129.147705
2058.511719	-59.584881
2057.496094	-117.955307
2056.478516	-150.255722
2055.458984	18.729317
2054.441406	-96.447098
2053.423828	-34.048180
2052.406250	-66.339935
2051.386719	-1.599724
2050.369141	-121.426819
2049.349609	118.356880
2048.330078	-100.788460
2047.312500	-108.794670
2046.292969	-116.800873
2045.273438	-124.807083
2044.253906	-132.813293
2043.234375	0.394288
2042.212891	-81.461906
2041.193359	-146.751709
2040.173828	45.448723
2039.152344	88.800034
2038.132813	-7.177001
2037.111328	17.285137
2036.089844	20.496689
2035.068359	80.352280
2034.048828	-27.350079
2033.027344	77.325615
2032.005859	9.765267
2030.982422	-10.599437
2029.960938	-125.280991
2028.939453	-32.437080
2027.916016	74.522705
2026.894531	115.454475
2025.871094	102.172714
2024.849609	22.925135
2023.826172	-61.005013
2022.802734	10.554264
2021.779297	65.608429
2020.755859	21.751801
2019.732422	15.581651
2018.708984	42.371502
2017.683594	26.792870
2016.660156	161.822342
2015.634766	0.368767
2014.611328	38.920429
2013.585938	49.239742
2012.562500	-196.758316
2011.537109	8.751226
2010.511719	4.978322
2009.486328	-97.504181
2008.460938	164.299408
2007.435547	-8.654282
2006.408203	189.628128
2005.382813	-44.332035
2004.357422	43.524498
2003.330078	-126.927498
2002.302734	-81.334091
2001.277344	-2.888741
2000.250000	28.597965
1999.222656	-47.858932
1998.195313	39.942310
1997.167969	55.002254
1996.140625	2.049018
1995.113281	-3.982268
1994.085938	83.775177
1993.056641	124.626884
1992.029297	78.751595
1991.000000	21.180210
1989.970703	108.899361
1988.943359	49.011822
1987.914063	68.785400
1986.884766	102.609985
1985.855469	12.333324
1984.826172	95.330482
1983.796875	12.120573
1982.767578	-122.541931
1981.736328	63.411335
1980.707031	-33.769409
1979.675781	74.930435
1978.646484	-85.351265
1977.615234	72.439682
1976.583984	29.122732
1975.552734	62.966507
1974.521484	64.085823
1973.490234	170.367462
1972.458984	148.119125
1971.427734	-114.722610
1970.396484	38.270546
1969.363281	-30.626823
1968.332031	-3.764445
1967.298828	-144.984818
1966.267578	-45.740746
1965.234375	104.818680
1964.201172	-40.991650
1963.167969	-2.446586
1962.134766	45.424641
1961.101563	111.944855
1960.068359	-26.742832
1959.035156	-39.482586
1958.000000	57.346527
1956.966797	25.969139
1955.931641	62.186646
1954.898438	65.783188
1953.863281	8.822434
1952.828125	-83.046936
1951.792969	-174.876633
1950.757813	-5.900959
1949.722656	-100.023186
1948.687500	-117.297951
1947.652344	5.068749
1946.615234	8.740998
1945.580078	72.905945
1944.542969	64.954216
1943.507813	-80.194191
1942.470703	-41.595371
1941.433594	-23.923582
1940.398438	3.049180
1939.361328	-16.457672
1938.324219	-94.039352
1937.287109	-159.969269
1936.248047	101.656609
1935.210938	5.543116
1934.173828	-109.105957
1933.134766	15.429846
1932.097656	86.542770
1931.058594	-153.362900
1930.019531	-12.608147
1928.980469	-41.262730
1927.941406	8.974655
1926.902344	-10.375928
1925.863281	-45.943344
1924.824219	122.550278
1923.785156	75.401855
1922.746094	141.854095
1921.705078	11.310791
1920.666016	105.577309
1919.625000	-94.397224
1918.583984	-58.030170
1917.544922	47.811802
1916.503906	70.270317
1915.462891	48.744354
1914.421875	-30.633732
1913.378906	5.746042
1912.337891	93.031517
1911.296875	282.098755
1910.253906	-7.726377
1909.212891	47.170143
1908.169922	206.122147
1907.128906	108.388596
1906.085938	73.115906
1905.042969	-61.520790
1904.000000	-105.975075
1902.957031	66.787750
1901.914063	-44.645870
1900.871094	-38.232441
1899.826172	224.534271
1898.783203	-25.377655
1897.740234	48.013111
1896.695313	-54.035191
1895.650391	150.908249
1894.607422	90.432838
1893.562500	-55.372135
1892.517578	126.435791
1891.472656	-120.783012
1890.427734	24.103312
1889.382813	-98.492622
1888.335938	240.001083
1887.291016	41.374790
1886.244141	216.142410
1885.199219	24.520990
1884.152344	134.754013
1883.105469	150.528839
1882.060547	134.067444
1881.013672	20.919573
1879.966797	-39.229897
1878.919922	204.481354
1877.873047	49.988876
1876.824219	-28.506302
1875.777344	139.196854
1874.728516	76.837807
1873.681641	42.107243
1872.632813	126.972740
1871.585938	161.240616
1870.537109	135.744766
1869.488281	45.917850
1868.439453	114.687630
1867.390625	153.579010
1866.341797	73.017784
1865.291016	217.579712
1864.242188	17.646484
1863.193359	93.311440
1862.142578	295.224152
1861.093750	132.137238
1860.042969	182.539841
1858.992188	226.053833
1857.941406	97.509331
1856.890625	150.221741
1855.839844	198.342438
1854.789063	177.670242
1853.738281	299.156342
1852.687500	338.095123
1851.634766	150.147171
1850.583984	218.909851
1849.531250	42.523598
1848.478516	200.643295
1847.427734	189.239685
1846.375000	154.955734
1845.322266	283.249969
1844.269531	143.685898
1843.216797	187.279602
1842.162109	251.468628
1841.109375	192.094666
1840.056641	219.681656
1839.001953	313.603271
1837.949219	279.439362
1836.894531	82.963089
1835.839844	231.762238
1834.785156	311.953003
1833.732422	245.865677
1832.677734	131.830811
1831.621094	196.044724
1830.566406	351.613800
1829.511719	313.019684
1828.457031	205.947968
1827.400391	224.493225
1826.343750	272.719055
1825.289063	273.010284
1824.232422	31.434593
1823.175781	321.544800
1822.119141	276.243225
1821.062500	240.091354
1820.005859	370.430969
1818.949219	407.259155
1817.892578	193.328751
1816.833984	392.026611
1815.777344	387.848572
1814.718750	82.927193
1813.662109	176.783661
1812.603516	354.898712
1811.544922	394.049042
1810.486328	335.288330
1809.427734	385.834808
1808.369141	518.318848
1807.310547	295.742310
1806.251953	334.927460
1805.191406	456.016724
1804.132813	299.562592
1803.072266	354.685394
1802.013672	405.250061
1800.953125	483.095215
1799.892578	426.808868
1798.832031	350.097504
1797.771484	343.867828
1796.710938	253.586594
1795.650391	379.153656
1794.589844	527.402527
1793.527344	464.424011
1792.466797	369.686218
1791.404297	363.530579
1790.343750	434.556488
1789.281250	371.679657
1788.218750	608.343262
1787.156250	463.810028
1786.093750	648.231750
1785.031250	465.208435
1783.968750	626.915344
1782.906250	586.806152
1781.841797	632.860901
1780.779297	665.309143
1779.714844	618.452148
1778.652344	576.148560
1777.587891	724.152466
1776.523438	559.569519
1775.458984	777.746216
1774.394531	595.117676
1773.330078	643.458679
1772.265625	488.094482
1771.201172	812.538574
1770.134766	759.038574
1769.070313	535.897644
1768.003906	704.141052
1766.939453	809.013977
1765.873047	816.640320
1764.806641	844.620728
1763.740234	734.722595
1762.673828	676.849731
1761.607422	833.664734
1760.541016	800.665527
1759.474609	717.994141
1758.406250	759.577515
1757.339844	857.604187
1756.271484	680.176086
1755.205078	861.722839
1754.136719	826.558350
1753.068359	737.258545
1752.000000	941.299927
1750.931641	809.169678
1749.863281	949.998657
1748.794922	793.124695
1747.726563	764.828491
1746.656250	837.998047
1745.587891	825.499756
1744.517578	862.596558
1743.449219	814.066406
1742.378906	803.863098
1741.308594	863.496521
1740.238281	873.574524
1739.167969	863.393372
1738.097656	835.214783
1737.027344	897.089905
1735.957031	790.164246
1734.884766	980.306396
1733.814453	866.670959
1732.742188	863.306458
1731.671875	848.702271
1730.599609	692.451416
1729.527344	918.466248
1728.455078	991.557739
1727.382813	911.802063
1726.310547	888.260193
1725.238281	1030.994507
1724.166016	1005.209961
1723.091797	977.200745
1722.019531	821.203186
1720.945313	988.588257
1719.871094	886.538757
1718.798828	995.510376
1717.724609	871.068115
1716.650391	1013.682739
1715.576172	1100.172607
1714.501953	1072.247559
1713.427734	1080.221436
1712.351563	998.514648
1711.277344	921.321533
1710.201172	1045.902100
1709.126953	1044.940186
1708.050781	1066.397705
1706.974609	969.114746
1705.900391	1042.107788
1704.824219	1061.336670
1703.748047	903.664001
1702.669922	1030.395020
1701.593750	1186.186401
1700.517578	997.258301
1699.439453	1258.196045
1698.363281	1073.807129
1697.285156	1059.504761
1696.208984	1369.522461
1695.130859	1082.362915
1694.052734	1188.823730
1692.974609	1163.358887
1691.896484	1269.782837
1690.818359	1327.012451
1689.740234	1306.023804
1688.660156	1343.139160
1687.582031	1319.933472
1686.501953	1321.312012
1685.423828	1418.706177
1684.343750	1647.797852
1683.263672	1501.816284
1682.183594	1467.477173
1681.103516	1544.725830
1680.023438	1726.813110
1678.943359	1768.312256
1677.863281	1716.131226
1676.783203	1634.982910
1675.701172	1602.922119
1674.621094	1874.039307
1673.539063	1824.128540
1672.457031	1961.427002
1671.375000	1915.983398
1670.294922	2122.282715
1669.212891	2105.792236
1668.128906	2247.428711
1667.046875	2086.204590
1665.964844	2116.490723
1664.882813	2389.385986
1663.798828	2459.682373
1662.716797	2472.103027
1661.632813	2422.237305
1660.548828	2570.355957
1659.464844	2553.857910
1658.380859	2577.392090
1657.296875	2694.297363
1656.212891	2828.949707
1655.128906	2930.223145
1654.044922	3051.465820
1652.958984	3390.403076
1651.875000	3387.138672
1650.789063	3508.258545
1649.705078	3640.438232
1648.619141	3930.217285
1647.533203	3986.818115
1646.447266	4010.110352
1645.361328	4328.539551
1644.275391	4478.239746
1643.189453	4809.798828
1642.101563	4970.468262
1641.015625	5359.496582
1639.929688	5750.614746
1638.841797	5906.619141
1637.753906	6115.770020
1636.666016	6462.252930
1635.580078	6841.853516
1634.492188	7236.840820
1633.404297	7585.182129
1632.314453	7605.645020
1631.226563	8365.666992
1630.138672	8543.177734
1629.048828	9121.287109
1627.960938	9256.562500
1626.871094	9787.890625
1625.781250	10325.680664
1624.693359	10617.745117
1623.603516	11055.690430
1622.513672	11245.823242
1621.423828	11694.572266
1620.332031	11959.699219
1619.242188	12682.244141
1618.152344	12894.075195
1617.060547	13245.038086
1615.970703	13474.377930
1614.878906	13579.956055
1613.787109	14016.753906
1612.695313	13791.008789
1611.605469	14267.355469
1610.511719	14238.094727
1609.419922	14689.933594
1608.328125	14636.333984
1607.236328	14964.411133
1606.142578	15027.692383
1605.050781	15128.438477
1603.957031	15339.404297
1602.865234	15587.774414
1601.771484	15205.639648
1600.677734	15861.674805
1599.583984	15640.479492
1598.490234	15401.730469
1597.396484	15526.524414
1596.302734	15829.670898
1595.207031	15782.591797
1594.113281	15856.613281
1593.017578	15677.461914
1591.923828	15355.303711
1590.828125	15323.733398
1589.732422	15168.958984
1588.636719	15240.818359
1587.541016	15209.276367
1586.445313	14933.641602
1585.349609	14741.650391
1584.253906	15097.114258
1583.156250	15054.623047
1582.060547	14803.365234
1580.962891	14776.314453
1579.865234	14580.108398
1578.769531	14175.291992
1577.671875	14455.812500
1576.574219	13882.076172
1575.476563	13793.716797
1574.378906	13944.645508
1573.279297	13481.013672
1572.181641	13478.335938
1571.083984	13280.393555
1569.984375	12821.485352
1568.886719	13055.775391
1567.787109	12866.769531
1566.687500	12872.956055
1565.587891	12458.251953
1564.488281	12315.457031
1563.388672	12258.172852
1562.289063	12014.666992
1561.189453	11747.143555
1560.087891	11755.683594
1558.988281	11825.528320
1557.886719	11582.247070
1556.787109	11330.284180
1555.685547	11074.027344
1554.583984	11001.681641
1553.482422	10747.747070
1552.380859	10657.967773
1551.279297	10609.775391
1550.177734	10705.932617
1549.074219	10369.114258
1547.972656	10425.918945
1546.871094	10224.768555
1545.767578	10102.364258
1544.664063	9988.736328
1543.560547	9931.945313
1542.458984	9720.071289
1541.355469	9573.789063
1540.250000	9386.066406
1539.146484	9713.651367
1538.042969	9333.856445
1536.939453	9172.439453
1535.833984	9142.005859
1534.730469	9259.935547
1533.625000	9150.955078
1532.519531	8961.304688
1531.414063	8828.412109
1530.310547	8723.897461
1529.205078	8774.194336
1528.097656	8676.260742
1526.992188	8617.575195
1525.886719	8595.945313
1524.779297	8474.108398
1523.673828	8445.962891
1522.566406	8298.045898
1521.460938	8158.879395
1520.353516	8063.298340
1519.246094	8231.120117
1518.138672	8161.662109
1517.031250	7987.774902
1515.923828	8107.642578
1514.816406	7881.604980
1513.707031	8127.582031
1512.599609	7825.496582
1511.490234	7997.467285
1510.382813	8032.423340
1509.273438	7743.530273
1508.164063	7750.257324
1507.054688	7659.206055
1505.945313	7529.077637
1504.835938	7572.739258
1503.726563	7601.177734
1502.615234	7416.827148
1501.505859	7584.200195
1500.394531	7415.092773
1499.285156	7408.787598
1498.173828	7625.963867
1497.062500	7352.782715
1495.951172	7396.359375
1494.839844	7069.078125
1493.728516	7346.845215
1492.617188	7461.918457
1491.505859	7329.846191
1490.394531	7334.342773
1489.281250	7252.161133
1488.169922	7263.151367
1487.056641	6910.233398
1485.943359	7131.341309
1484.830078	7428.151855
1483.716797	7151.135254
1482.603516	7211.882813
1481.490234	7116.775391
1480.376953	7158.017578
1479.263672	7125.676758
1478.148438	7313.985840
1477.035156	6989.634766
1475.919922	7164.911133
1474.804688	7097.968750
1473.689453	7340.162598
1472.576172	7342.354492
1471.460938	7262.423828
1470.343750	7312.151367
1469.228516	7413.695313
1468.113281	7277.609375
1466.998047	7221.462402
1465.880859	7128.624023
1464.765625	7238.729492
1463.648438	7173.959961
1462.531250	7422.123535
1461.414063	7091.931152
1460.296875	7441.399902
1459.179688	7361.505371
1458.062500	7324.760742
1456.945313	7523.048828
1455.826172	7318.115723
1454.708984	7434.411133
1453.589844	7742.469727
1452.472656	7548.344727
1451.353516	7623.583496
1450.234375	7591.083496
1449.115234	7618.889160
1447.996094	7829.709961
1446.876953	7739.032227
1445.757813	7801.211914
1444.638672	7736.378906
1443.517578	7921.179199
1442.398438	7966.055664
1441.277344	8393.816406
1440.156250	8313.834961
1439.037109	8304.833008
1437.916016	8280.775391
1436.794922	8368.501953
1435.673828	8490.577148
1434.550781	8636.245117
1433.429688	8487.489258
1432.308594	8712.570313
1431.185547	8819.435547
1430.064453	8445.202148
1428.941406	8906.337891
1427.818359	8963.708984
1426.695313	9038.221680
1425.572266	9449.634766
1424.449219	9330.905273
1423.326172	9542.590820
1422.203125	9456.040039
1421.080078	9478.884766
1419.955078	9675.401367
1418.832031	9931.867188
1417.707031	9918.152344
1416.582031	9874.426758
1415.457031	10171.415039
1414.332031	10337.603516
1413.207031	10351.634766
1412.082031	10558.408203
1410.957031	10435.331055
1409.832031	10941.742188
1408.705078	10662.354492
1407.580078	10967.347656
1406.453125	11124.576172
1405.326172	11095.596680
1404.201172	11511.570313
1403.074219	11354.185547
1401.947266	11489.815430
1400.820313	11368.813477
1399.691406	11878.486328
1398.564453	11996.827148
1397.437500	12170.682617
1396.308594	12308.146484
1395.181641	12556.639648
1394.052734	12480.376953
1392.923828	12700.975586
1391.794922	12808.323242
1390.666016	12909.218750
1389.537109	13172.291992
1388.408203	13117.278320
1387.279297	13425.016602
1386.148438	13476.630859
1385.019531	13494.085938
1383.888672	13645.887695
1382.759766	13744.318359
1381.628906	13793.668945
1380.498047	13879.232422
1379.367188	14067.056641
1378.236328	14316.603516
1377.105469	14468.049805
1375.974609	14421.325195
1374.841797	14496.011719
1373.710938	14832.583984
1372.578125	14766.631836
1371.447266	14985.941406
1370.314453	15181.756836
1369.181641	15113.621094
1368.048828	15215.710938
1366.916016	15149.699219
1365.783203	15245.346680
1364.650391	15428.140625
1363.515625	15438.641602
1362.382813	15313.070313
1361.248047	15746.541992
1360.115234	15385.049805
1358.980469	15580.366211
1357.845703	15552.540039
1356.710938	15813.588867
1355.576172	15743.237305
1354.441406	15585.844727
1353.306641	15649.286133
1352.171875	15897.363281
1351.035156	15901.289063
1349.900391	15705.740234
1348.763672	15813.630859
1347.626953	15845.114258
1346.492188	15592.381836
1345.355469	15598.424805
1344.218750	15519.652344
1343.082031	15504.489258
1341.943359	15578.335938
1340.806641	15429.648438
1339.669922	15240.746094
1338.531250	15079.439453
1337.394531	15113.026367
1336.255859	15150.832031
1335.117188	15245.779297
1333.978516	14872.852539
1332.839844	14806.939453
1331.701172	14827.801758
1330.562500	14554.550781
1329.423828	14357.538086
1328.283203	14359.402344
1327.144531	14638.290039
1326.003906	14115.720703
1324.865234	13753.983398
1323.724609	13576.251953
1322.583984	13590.883789
1321.443359	13504.078125
1320.302734	13328.564453
1319.162109	13319.968750
1318.019531	13121.297852
1316.878906	12986.030273
1315.736328	12707.242188
1314.595703	12384.211914
1313.453125	12441.163086
1312.310547	12240.656250
1311.169922	12276.498047
1310.027344	11892.554688
1308.884766	11934.754883
1307.740234	11650.089844
1306.597656	11359.187500
1305.455078	11097.885742
1304.310547	11032.673828
1303.167969	10910.578125
1302.023438	10643.141602
1300.878906	10470.582031
1299.734375	10277.010742
1298.591797	10182.468750
1297.445313	9852.144531
1296.300781	9787.164063
1295.156250	9989.499023
1294.011719	9438.390625
1292.865234	9703.824219
1291.720703	9462.173828
1290.574219	9085.988281
1289.427734	8928.630859
1288.281250	8977.372070
1287.134766	8546.780273
1285.988281	8500.971680
1284.841797	8453.069336
1283.695313	8159.339844
1282.548828	8149.312988
1281.400391	7925.037109
1280.253906	7849.937012
1279.105469	7804.252930
1277.957031	7246.326660
1276.808594	7448.432129
1275.660156	7243.320313
1274.511719	7008.895020
1273.363281	6961.261230
1272.214844	6989.151367
1271.066406	6872.315430
1269.916016	6680.025879
1268.767578	6783.407227
1267.617188	6691.802734
1266.466797	6478.666016
1265.316406	6328.459473
1264.166016	6226.485352
1263.015625	6250.226074
1261.865234	5997.492188
1260.714844	5960.525391
1259.564453	5841.911621
1258.412109	5643.787109
1257.261719	5462.468262
1256.109375	5802.270020
1254.957031	5294.580566
1253.804688	5360.244629
1252.652344	5486.537109
1251.500000	5253.093262
1250.347656	5189.083496
1249.195313	5252.610840
1248.042969	4925.255859
1246.888672	4953.271973
1245.736328	5054.403809
1244.582031	4729.325195
1243.427734	4609.048340
1242.273438	4718.528320
1241.119141	4600.374023
1239.964844	4471.816895
1238.810547	4522.807617
1237.656250	4381.778320
1236.501953	4399.374512
1235.345703	4279.269531
1234.191406	4250.980469
1233.035156	4306.120117
1231.878906	4256.978027
1230.722656	4070.250977
1229.566406	4104.538086
1228.410156	4178.408691
1227.253906	3852.169678
1226.097656	3813.548096
1224.939453	3772.854248
1223.783203	3792.569336
1222.625000	3726.899902
1221.468750	3788.250488
1220.310547	3745.497314
1219.152344	3621.585693
1217.994141	3514.361328
1216.835938	3565.296143
1215.677734	3468.514160
1214.519531	3450.799561
1213.359375	3312.477051
1212.201172	3398.749268
1211.041016	3362.340332
1209.882813	3544.179932
1208.722656	3420.476318
1207.562500	3361.223389
1206.402344	3270.827637
1205.242188	3267.698486
1204.082031	3324.791992
1202.919922	3190.843506
1201.759766	3252.081787
1200.599609	3062.146729
1199.437500	3071.502686
1198.275391	3047.656250
1197.115234	3090.202881
1195.953125	3008.281250
1194.791016	2955.423096
1193.628906	2850.743408
1192.464844	2787.563721
1191.302734	2788.662598
1190.140625	2731.731201
1188.976563	2765.993408
1187.814453	2874.825439
1186.650391	2699.840576
1185.486328	2806.577881
1184.322266	2660.655762
1183.158203	2636.932617
1181.994141	2611.149902
1180.830078	2664.021240
1179.666016	2524.433838
1178.500000	2527.651123
1177.335938	2483.289795
1176.169922	2699.543213
1175.003906	2566.252930
1173.839844	2193.177246
1172.673828	2549.939941
1171.507813	2259.670410
1170.341797	2378.661377
1169.173828	2456.292236
1168.007813	2416.148438
1166.841797	2233.509033
1165.673828	2238.853271
1164.505859	2277.233887
1163.339844	2303.216797
1162.171875	2102.154297
1161.003906	2212.774170
1159.835938	2123.218018
1158.667969	2062.577393
1157.500000	2125.716064
1156.330078	2009.421143
1155.162109	2027.191406
1153.992188	2034.651611
1152.824219	2075.091064
1151.654297	2294.813965
1150.484375	2077.641602
1149.314453	1977.975220
1148.144531	2127.579834
1146.974609	1873.488892
1145.804688	1944.823120
1144.632813	1867.909424
1143.462891	1951.578491
1142.291016	1934.381226
1141.119141	1917.193604
1139.949219	1924.703247
1138.777344	1856.107544
1137.605469	1719.670898
1136.433594	1809.476196
1135.261719	1893.087524
1134.087891	1676.562744
1132.916016	1840.331909
1131.742188	1835.551636
1130.570313	1993.084595
1129.396484	1727.409912
1128.222656	1884.919434
1127.050781	1783.641235
1125.876953	1684.458252
1124.701172	1804.961670
1123.527344	1720.186890
1122.353516	1752.414673
1121.179688	1696.413330
1120.003906	1634.284180
1118.828125	1783.437378
1117.654297	1549.069214
1116.478516	1675.645142
1115.302734	1695.585815
1114.126953	1729.873291
1112.951172	1622.755737
1111.775391	1695.987183
1110.597656	1558.197754
1109.421875	1250.458862
1108.244141	1446.609985
1107.068359	1587.417236
1105.890625	1582.834961
1104.712891	1578.261353
1103.535156	1338.351685
1102.357422	1448.419678
1101.179688	1445.939453
1100.001953	1447.558472
1098.822266	1612.792114
1097.644531	1493.758545
1096.464844	1280.732666
1095.287109	1360.083374
1094.107422	1437.372192
1092.927734	1314.396118
1091.748047	1330.393433
1090.568359	1311.668579
1089.388672	1143.870850
1088.207031	1284.473633
1087.027344	1182.086304
1085.845703	1122.609863
1084.666016	1403.990112
1083.484375	1158.823975
1082.302734	1127.970825
1081.121094	1225.647949
1079.939453	1325.339722
1078.757813	1092.625122
1077.576172	1163.780762
1076.394531	1043.306885
1075.210938	1122.618896
1074.029297	1114.288452
1072.845703	1044.849487
1071.662109	955.072754
1070.480469	1093.447388
1069.296875	1062.766846
1068.113281	1036.178955
1066.929688	936.325806
1065.744141	891.472595
1064.560547	864.956909
1063.375000	903.570679
1062.191406	814.019714
1061.005859	696.036804
1059.820313	767.227051
1058.636719	925.830811
1057.451172	765.229431
1056.265625	828.272583
1055.078125	785.632751
1053.892578	759.270386
1052.707031	773.558105
1051.519531	672.078125
1050.333984	842.768799
1049.146484	643.871521
1047.958984	692.725708
1046.771484	753.753174
1045.583984	626.035156
1044.396484	573.447144
1043.208984	654.784058
1042.019531	689.453918
1040.832031	559.850891
1039.642578	738.512573
1038.455078	606.940491
1037.265625	479.480865
1036.076172	664.178955
1034.886719	634.038269
1033.697266	579.608032
1032.507813	553.566589
1031.318359	604.504761
1030.126953	501.547089
1028.937500	491.764038
1027.746094	514.385498
1026.556641	472.244629
1025.365234	450.368256
1024.173828	588.341431
1022.982422	394.536194
1021.791016	451.596680
1020.599609	541.003845
1019.406250	385.758331
1018.214844	509.534760
1017.021484	465.532654
1015.830078	544.820557
1014.636719	284.668884
1013.443359	521.552063
1012.250000	499.843719
1011.056641	385.264038
1009.863281	492.828217
1008.669922	483.284760
1007.474609	344.587158
1006.281250	468.284149
1005.085938	414.401733
1003.892578	324.236206
1002.697266	298.659332
1001.501953	557.444214
1000.306641	485.487396
999.111328	472.029083
997.916016	375.949677
996.720703	318.204712
995.523438	284.674164
994.328125	422.398987
993.130859	336.518402
991.933594	407.759003
990.736328	299.787262
989.541016	358.953217
988.341797	297.349884
987.144531	237.789520
985.947266	190.334686
984.750000	235.450241
983.550781	330.852203
982.353516	355.842926
981.154297	121.456490
979.955078	140.472015
978.755859	227.835281
977.556641	345.326538
976.357422	221.667984
975.158203	327.091492
973.958984	207.521408
972.757813	389.256409
971.558594	183.398773
970.357422	154.299362
969.158203	145.292297
967.957031	62.047371
966.755859	185.523621
965.554688	196.619446
964.353516	179.641464
963.150391	202.797241
961.949219	101.629616
960.748047	138.846619
959.544922	47.776440
958.341797	-25.212355
957.140625	30.079266
955.937500	167.511414
954.734375	4.435004
953.531250	61.737202
952.326172	131.050049
951.123047	46.184082
949.919922	215.586761
948.714844	102.743668
947.511719	98.007240
946.306641	31.264757
945.101563	24.570074
943.896484	89.892387
942.691406	95.212608
941.486328	48.559505
940.281250	93.889565
939.074219	-96.625450
937.869141	56.649319
936.662109	-1.901515
935.457031	87.402710
934.250000	102.791420
933.042969	142.150314
931.835938	-6.176437
930.628906	73.137291
929.421875	70.601204
928.212891	111.984879
927.005859	7.707476
925.796875	-12.731800
924.589844	-140.864059
923.380859	-87.461014
922.171875	27.745653
920.962891	17.330101
919.753906	82.671165
918.544922	-123.029083
917.335938	53.917274
916.125000	47.537296
914.916016	-12.613483
913.705078	-24.932518
912.494141	132.011475
911.285156	107.743942
910.074219	95.442726
908.863281	-58.143066
907.652344	-28.605328
906.439453	-32.883183
905.228516	-7.317370
904.017578	-31.469105
902.804688	89.556511
901.591797	-53.863602
900.380859	77.078575
899.167969	62.910271
897.955078	-42.647892
896.742188	90.245300
895.527344	-203.961960
894.314453	81.856133
893.101563	169.017365
891.886719	31.818117
890.673828	107.066719
889.458984	-125.319756
888.244141	-153.232605
887.029297	25.206964
885.814453	-24.524111
884.599609	-44.480133
883.384766	84.301186
882.167969	-50.636124
880.953125	-30.906324
879.736328	-3.243013
878.519531	-149.960464
877.304688	-78.686493
876.087891	-82.699051
874.871094	-68.877396
873.654297	-92.677223
872.435547	-169.913300
871.218750	-112.510635
870.001953	-100.642418
868.783203	-156.047714
867.564453	-37.316776
866.347656	-165.896881
865.128906	-159.928085
863.910156	-74.854721
862.691406	-110.410789
861.472656	-27.338617
860.251953	-153.790787
859.033203	-250.555786
857.812500	-266.269226
856.593750	34.097290
855.373047	-133.731461
854.152344	-92.170586
852.931641	-107.877434
851.710938	-216.355576
850.490234	-26.754068
849.269531	-42.447582
848.046875	-117.318604
846.826172	-20.535690
845.603516	-111.154198
844.382813	1.379943
843.160156	-59.626301
841.937500	-146.235077
840.714844	-94.837662
839.492188	37.345093
838.267578	-171.381287
837.044922	-64.833878
835.822266	23.952993
834.597656	33.944046
833.373047	47.872978
832.150391	93.293800
830.925781	-36.474251
829.701172	10.923619
828.476563	85.855408
827.250000	34.860546
826.025391	35.021786
824.800781	115.816551
823.574219	-125.880280
822.347656	74.845634
821.123047	100.559975
819.896484	69.279305
818.669922	77.308556
817.443359	271.972748
816.216797	-12.706779
814.988281	66.041321
813.761719	83.886688
812.533203	225.415680
811.306641	145.083099
810.078125	60.858593
808.849609	23.755613
807.621094	233.862839
806.392578	167.319260
805.164063	65.495781
803.935547	175.480606
802.705078	159.957687
801.476563	148.353989
800.246094	-12.191437
799.017578	199.620483
797.787109	152.750580
796.556641	196.001831
795.326172	82.555702
794.095703	-26.937109
792.863281	192.524185
791.632813	128.066833
790.402344	89.072006
789.169922	114.666931
787.937500	153.945175
786.705078	-10.232112
785.474609	124.876114
784.242188	232.562088
783.007813	82.135162
781.775391	72.496117
780.542969	135.170105
779.308594	62.988907
778.076172	143.217590
776.841797	12.447122
775.607422	-36.253288
774.375000	106.423416
773.140625	36.235611
771.904297	77.339798
770.669922	71.577370
769.435547	122.401115
768.199219	-94.090691
766.964844	-70.579071
765.728516	27.037479
764.494141	29.055532
763.257813	-80.064095
762.021484	79.862198
760.785156	29.227768
759.546875	44.864185
758.310547	33.204865
757.074219	109.203468
755.835938	-93.349976
754.599609	33.258785
753.361328	-79.665398
752.123047	46.883446
750.884766	64.383133
749.646484	91.597633
748.408203	-27.132914
747.167969	-3.817921
745.929688	-83.611061
744.689453	-27.255573
743.451172	5.733611
742.210938	-44.886818
740.970703	-41.078033
739.730469	-4.245016
738.490234	67.537331
737.250000	63.520279
736.009766	-0.719714
734.767578	-43.582859
733.527344	12.576367
732.285156	51.236519
731.044922	103.452873
729.802734	70.254684
728.560547	145.711731
727.318359	-19.426655
726.076172	13.321745
724.832031	94.531647
723.589844	-99.637413
722.345703	103.669731
721.103516	155.701599
719.859375	242.588135
718.615234	67.850975
717.371094	127.570999
716.126953	123.336380
714.882813	88.102020
713.638672	99.335007
712.394531	155.075684
711.148438	46.257862
709.902344	190.982956
708.658203	99.575104
707.412109	64.289772
706.166016	185.676193
704.919922	71.063759
703.673828	140.165665
702.427734	10.100399
701.179688	133.280563
699.933594	47.676258
698.685547	64.497147
697.437500	31.064623
696.191406	80.680191
694.943359	2.800899
693.695313	77.472847
692.447266	76.807182
691.197266	49.103024
689.949219	-5.632931
688.699219	117.155685
687.451172	8.369257
686.201172	-15.523371
684.951172	30.001167
683.701172	-7.424479
682.451172	120.943176
681.201172	-109.283730
679.951172	136.578232
678.701172	0.805771
677.449219	-15.489371
676.199219	20.205116
674.947266	50.091877
673.695313	153.118408
672.443359	94.367569
671.191406	158.809418
669.939453	75.014603
668.687500	52.802807
667.433594	24.807482
666.181641	162.224121
664.927734	99.556099
663.675781	200.332047
662.421875	126.098167
661.167969	88.389725
659.914063	41.062057
658.660156	-2.429898
657.406250	111.611473
656.150391	106.496582
654.896484	124.403503
653.640625	92.356941
652.384766	52.617538
651.130859	195.224396
649.875000	90.178543
648.619141	265.304718
647.361328	100.760704
646.105469	22.566946
644.849609	170.688904
643.591797	138.484436
642.335938	77.505508
641.078125	231.218430
639.820313	149.113724
638.562500	99.587776
637.304688	249.308472
636.046875	163.335251
634.789063	136.738846
633.531250	157.998154
632.271484	116.044930
631.011719	282.732788
629.753906	35.929214
628.494141	179.557739
627.234375	83.953568
625.974609	196.863693
624.714844	160.526794
623.455078	229.349060
622.193359	83.987503
620.933594	349.639038
619.671875	190.873657
618.410156	158.257797
617.148438	123.715202
615.888672	201.861420
614.625000	150.080124
613.363281	111.655983
612.101563	128.585663
610.839844	149.300278
609.576172	154.712311
608.314453	95.212418
607.050781	104.392212
605.787109	75.388908
604.523438	136.009598
603.259766	147.000854
601.996094	135.080872
600.730469	86.918251
599.466797	80.674759
598.203125	169.685989
596.937500	41.436321
595.671875	35.120464
594.406250	82.107552
593.140625	-70.900269
591.875000	-44.910824
590.609375	-89.393341
589.343750	-36.819996
588.076172	-165.074860
586.810547	70.089684
585.542969	162.471359
584.275391	-22.895821
583.009766	23.774269
581.742188	-81.705772
580.472656	-46.504513
579.205078	39.973892
577.937500	-14.230033
576.667969	26.555908
575.400391	-172.057037
574.130859	-74.334419
572.861328	-35.542587
571.593750	-29.069784
570.324219	34.322590
569.052734	-57.971985
567.783203	85.049393
566.513672	-24.353384
565.242188	-29.411304
563.972656	-161.572372
562.701172	-60.464218
561.429688	63.332790
560.160156	71.422516
558.888672	-62.671043
557.615234	42.028152
556.343750	46.244499
555.072266	12.544674
553.798828	47.013748
552.527344	9.483306
551.253906	-86.757011
549.980469	19.565845
548.707031	95.541351
547.433594	-63.193661
546.160156	-81.887596
544.886719	14.794624
543.611328	-206.341019
542.337891	-43.536488
541.062500	-115.268379
539.789063	-71.685219
538.513672	34.228916
537.238281	-12.990767
535.962891	-84.782585
534.687500	-133.905655
533.410156	-124.486427
532.134766	128.514572
530.857422	-103.844688
529.582031	-20.885921
528.304688	-36.130898
527.027344	-4.216910
525.750000	18.227316
524.472656	29.320623
523.195313	64.905983
521.917969	-67.382622
520.638672	7.752354
519.361328	-167.886139
518.082031	-70.189095
516.802734	-128.962906
515.523438	-74.688797
514.244141	-272.890961
512.964844	-101.878769
511.685547	-40.173450
510.406250	-95.248413
509.125000	-163.506073
507.843750	-52.952778
506.564453	-21.496109
505.283203	-106.729317
504.001953	-90.368591
502.720703	-156.793076
501.439453	-50.204174
500.158203	14.962355
498.875000	-81.587738
497.593750	-131.131882
496.310547	-47.254955
495.027344	-78.040085
493.746094	-120.102531
492.462891	-90.797821
491.179688	24.863272
489.894531	-21.010830
488.611328	81.420525
487.328125	-124.020828
486.042969	-61.054153
484.759766	24.392305
483.474609	-36.536331
482.189453	-82.454636
480.904297	-45.859364
479.619141	22.581844
478.333984	-6.497870
477.046875	164.967239
475.761719	-75.919464
474.474609	-46.930630
473.189453	51.350674
471.902344	29.707865
470.615234	71.730705
469.328125	115.597763
468.041016	47.114574
466.753906	203.248291
465.464844	72.990807
464.177734	-14.195755
462.888672	139.957642
461.599609	116.358284
460.312500	115.200157
459.023438	67.285904
457.734375	215.666901
456.443359	92.965340
455.154297	170.258804
453.865234	56.935112
452.574219	-15.261518
451.285156	172.184570
449.994141	23.411335
448.703125	52.061077
447.412109	136.697678
446.121094	55.181904
444.830078	31.539061
443.537109	213.136856
442.246094	146.557983
440.953125	79.994019
439.662109	140.262039
438.369141	97.953018
437.076172	12.778681
435.783203	4.049522
434.490234	107.134125
433.197266	18.268280
431.902344	91.500336
430.609375	2.665527
429.314453	-54.484577
428.019531	20.581144
426.726563	183.117920
425.431641	-41.547466
424.136719	1.841679
422.839844	145.686768
421.544922	-108.614952
420.250000	24.045927
418.953125	138.063507
417.658203	-8.255340
416.361328	10.926486
415.064453	139.766052
413.767578	71.582184
412.470703	42.444649
411.173828	145.218155
409.875000	34.362293
408.578125	20.120363
407.279297	39.307117
405.980469	45.499989
404.683594	14.580560
403.384766	65.328499
402.085938	73.392975
400.787109	-18.710907
399.486328	6.073229
398.187500	-115.638489
396.886719	111.271645
395.587891	-112.352776
394.287109	179.370193
392.986328	144.851318
391.685547	95.534416
390.384766	14.754869
389.083984	15.511168
387.783203	-24.458946
386.480469	142.964081
385.179688	-33.974152
383.876953	33.474831
382.574219	124.972115
381.271484	24.031301
379.968750	-102.756844
378.666016	147.826843
377.363281	30.341358
376.058594	27.544153
374.755859	22.919666
373.451172	-24.197807
372.148438	-115.628143
370.843750	-46.267399
369.539063	-10.162790
368.234375	3.785197
366.929688	-57.963577
365.623047	-99.363388
364.318359	-26.273561
363.011719	-104.535126
361.707031	-22.199934
360.400391	58.280754
359.093750	-27.267025
357.787109	-96.162743
356.480469	-23.018358
355.171875	-19.940742
353.865234	71.646217
352.558594	106.089211
351.250000	-36.362576
349.941406	82.887108
348.632813	63.961613
347.324219	164.784576
346.015625	15.158055
344.707031	-25.761431
343.398438	82.465851
342.087891	163.072708
340.779297	15.498643
339.468750	86.944389
338.158203	60.897369
336.849609	110.296005
335.539063	161.543396
334.226563	60.198452
332.916016	126.198685
331.605469	70.902512
330.292969	105.694901
328.982422	22.920753
327.669922	54.093975
326.357422	149.567230
325.044922	81.606293
323.732422	41.238617
322.419922	44.970173
321.107422	127.650177
319.792969	81.879684
318.480469	162.749359
317.166016	96.870895
315.851563	-9.302903
314.537109	159.649368
313.222656	211.234558
311.908203	-123.946732
310.593750	56.024422
309.277344	199.312790
307.962891	128.225479
306.646484	-36.228233
305.332031	-35.761463
304.015625	96.577110
302.699219	33.001381
301.382813	103.104485
300.066406	87.194870
298.748047	71.319847
297.431641	70.116730
296.113281	98.211090
294.796875	219.597931
293.478516	304.399567
292.160156	279.505127
290.841797	327.765411
289.523438	297.449707
288.203125	252.554169
286.884766	348.377869
285.564453	232.305252
284.246094	233.184418
282.925781	321.737793
281.605469	200.333023
280.285156	298.039490
278.964844	313.610107
277.644531	206.944260
276.322266	290.076935
275.001953	267.407288
273.679688	407.082886
272.359375	203.926605
271.037109	154.005020
269.714844	102.298988
268.392578	136.288284
267.070313	97.398926
265.746094	94.979385
264.423828	176.367584
263.099609	59.235756
261.777344	136.993942
260.453125	123.713333
259.128906	70.408028
257.804688	0.755785
256.480469	14.841572
255.156250	88.970039
253.830078	57.585751
252.505859	97.147522
251.179688	-137.858353
249.855469	-5.543504
248.529297	32.214085
247.203125	-37.258995
245.876953	45.925167
244.548828	-48.952652
243.222656	-34.813892
241.896484	-145.988190
240.568359	7.973067
239.240234	-85.018806
237.914063	-118.085266
236.585938	-67.665672
235.257813	26.275679
233.927734	-130.175644
232.599609	30.835060
231.271484	-76.621361
229.941406	-109.713409
228.613281	-63.044930
227.283203	34.341175
225.953125	60.996487
224.623047	-108.064804
223.292969	-50.643040
221.960938	-49.415493
220.630859	36.897373
219.300781	52.535206
217.968750	-26.000368
216.636719	114.465172
215.304688	-58.227196
213.972656	-17.395737
212.640625	-92.397827
211.308594	40.583427
209.976563	50.501083
208.642578	51.325184
207.310547	-52.752026
205.976563	-46.594254
204.642578	-89.288170
203.308594	12.515978
201.974609	-64.619736
200.640625	-67.742172
199.306641	48.252632
197.970703	81.079590
196.636719	-93.777573
195.300781	-26.798326
193.964844	-35.716576
192.630859	-95.234543
191.294922	12.943254
189.957031	-71.996094
188.621094	21.524969
187.285156	46.401371
185.947266	11.676314
184.611328	-5.118369
183.273438	60.872692
181.935547	22.227678
180.597656	-7.515843
179.259766	144.534592
177.921875	-128.569931
176.582031	-36.226440
175.244141	9.148584
173.904297	-46.423584
172.566406	59.835068
171.226563	36.364258
169.886719	-3.441956
168.546875	-36.198097
167.205078	85.533615
165.865234	-6.889383
164.525391	161.193420
163.183594	14.515656
161.841797	50.992252
160.501953	-90.592239
159.160156	-61.678753
157.818359	98.129601
156.476563	79.906448
155.132813	-1.365874
153.791016	-142.054840
152.447266	-20.898766
151.105469	105.377068
149.761719	-35.951550
148.417969	-78.815399
147.074219	-8.926208
145.730469	14.063766
144.386719	-97.675079
143.041016	148.844284
141.697266	-76.327164
140.351563	97.872002
139.005859	-86.585373
137.660156	-156.635391
136.314453	13.017159
134.968750	73.075104
133.623047	131.003860
132.277344	-35.155594
130.929688	-33.377754
129.583984	32.488926
128.236328	106.914299
126.888672	-1.488668
125.541016	34.639236
124.193359	81.109253
122.845703	52.097248
121.496094	36.986950
120.148438	80.475395
118.798828	130.668594
117.451172	48.248566
116.101563	-6.009445
114.751953	-12.466291
113.402344	57.411842
112.052734	162.514587
110.701172	192.128326
109.351563	217.711288
108.000000	133.938385
106.650391	-10.928872
105.298828	-52.823654
103.947266	43.878193
