#Wave		#Intensity
3204.375000	-136.746765
3203.544922	-212.851776
3202.713867	26.485189
3201.882813	7.224456
3201.051758	71.713425
3200.220703	95.229164
3199.389648	231.453033
3198.558594	94.798759
3197.726563	479.550110
3196.895508	66.915489
3196.063477	68.411507
3195.231445	362.156036
3194.399414	194.939667
3193.567383	241.748306
3192.734375	322.972595
3191.902344	-85.426369
3191.069336	177.537811
3190.237305	370.626556
3189.404297	300.031738
3188.571289	313.049957
3187.738281	453.032227
3186.905273	239.813889
3186.071289	-28.571007
3185.238281	428.535797
3184.404297	405.333435
3183.570313	35.001457
3182.736328	254.035294
3181.902344	677.863892
3181.068359	506.142883
3180.233398	571.063843
3179.399414	323.768280
3178.564453	772.190613
3177.729492	535.952209
3176.895508	345.699005
3176.060547	380.371277
3175.224609	359.945770
3174.389648	529.686829
3173.554688	601.032471
3172.718750	542.311890
3171.882813	561.222778
3171.046875	611.596130
3170.210938	583.866638
3169.375000	740.379028
3168.539063	593.993530
3167.702148	418.604187
3166.866211	479.281158
3166.029297	476.334412
3165.192383	720.850464
3164.355469	711.648438
3163.518555	336.569214
3162.681641	724.252197
3161.843750	849.669373
3161.006836	384.879059
3160.168945	412.052551
3159.331055	482.157043
3158.493164	701.603394
3157.655273	768.349365
3156.817383	527.190735
3155.979492	757.413208
3155.140625	559.055176
3154.302734	633.602417
3153.463867	598.734070
3152.625000	428.647522
3151.786133	379.079803
3150.947266	610.822510
3150.107422	891.123474
3149.268555	835.211243
3148.428711	707.365784
3147.588867	461.699829
3146.749023	554.586975
3145.909180	701.793274
3145.069336	685.250977
3144.229492	582.489746
3143.388672	470.988251
3142.548828	680.536621
3141.708008	479.852997
3140.867188	709.076904
3140.026367	519.603333
3139.185547	304.245087
3138.344727	722.035767
3137.502930	540.788574
3136.662109	743.282410
3135.820313	455.834320
3134.978516	695.210022
3134.136719	427.618835
3133.294922	580.768066
3132.453125	461.833679
3131.611328	503.056274
3130.768555	435.403778
3129.925781	868.259949
3129.083984	745.975891
3128.241211	586.420471
3127.397461	486.833649
3126.554688	521.529175
3125.711914	561.808472
3124.868164	647.679504
3124.025391	564.822021
3123.181641	390.450684
3122.337891	387.413361
3121.494141	572.768677
3120.650391	649.442566
3119.805664	711.703735
3118.961914	782.413025
3118.117188	350.647034
3117.272461	409.767792
3116.428711	705.600769
3115.583008	222.403931
3114.738281	269.817719
3113.893555	505.350586
3113.047852	523.996948
3112.203125	331.584076
3111.357422	452.696442
3110.511719	482.484039
3109.666016	215.815857
3108.820313	712.726929
3107.974609	12.945676
3107.127930	435.508667
3106.282227	544.611633
3105.435547	682.070068
3104.588867	93.462257
3103.742188	25.864122
3102.895508	535.941467
3102.048828	214.908936
3101.201172	260.909912
3100.354492	488.895020
3099.506836	406.725464
3098.659180	418.362793
3097.811523	697.193420
3096.963867	151.488495
3096.116211	-58.709309
3095.267578	597.844421
3094.419922	194.321884
3093.571289	117.571533
3092.722656	532.188110
3091.874023	159.950500
3091.025391	173.959885
3090.176758	250.377945
3089.328125	335.241394
3088.478516	315.016815
3087.628906	411.099915
3086.780273	509.960815
3085.930664	140.675522
3085.081055	97.647675
3084.230469	397.726440
3083.380859	323.413147
3082.530273	-28.743870
3081.680664	194.590866
3080.830078	327.125671
3079.979492	422.752594
3079.128906	178.350021
3078.278320	248.423203
3077.426758	91.865875
3076.576172	14.632924
3075.724609	-173.024750
3074.873047	13.023299
3074.022461	-109.504524
3073.169922	297.157867
3072.318359	-147.977631
3071.466797	29.392729
3070.614258	223.652695
3069.762695	-14.848132
3068.910156	15.330246
3068.057617	263.179657
3067.205078	-9.173679
3066.352539	-148.611343
3065.500000	217.803421
3064.646484	89.653450
3063.793945	328.782501
3062.940430	-110.037529
3062.086914	177.040604
3061.233398	54.615730
3060.379883	194.776871
3059.525391	128.833389
3058.671875	235.074265
3057.817383	307.413940
3056.963867	-130.893799
3056.109375	-66.969658
3055.254883	25.144825
3054.399414	286.419189
3053.544922	347.450775
3052.690430	25.097797
3051.834961	156.626648
3050.979492	88.044487
3050.125000	-3.032198
3049.268555	114.381355
3048.413086	-103.398781
3047.557617	-47.920647
3046.702148	13.187832
3045.845703	-12.988473
3044.989258	79.088646
3044.132813	97.980698
3043.276367	296.979645
3042.419922	310.246552
3041.563477	2.848802
3040.707031	280.588043
3039.849609	-35.103031
3038.992188	-2.018514
3038.134766	-70.122353
3037.277344	449.271881
3036.419922	-158.403320
3035.562500	-32.483021
3034.705078	-91.991760
3033.846680	368.192780
3032.988281	-25.516768
3032.129883	106.034721
3031.271484	57.892982
3030.413086	144.545151
3029.554688	29.122889
3028.696289	264.550812
3027.836914	171.658478
3026.977539	269.592590
3026.119141	81.450775
3025.259766	28.008724
3024.399414	274.640381
3023.540039	75.485405
3022.680664	131.514099
3021.820313	-89.898750
3020.959961	226.813065
3020.100586	-67.290367
3019.240234	283.020447
3018.378906	299.963165
3017.518555	154.534027
3016.658203	67.998611
3015.796875	317.458588
3014.936523	141.452835
3014.075195	80.283737
3013.213867	296.192688
3012.352539	607.199829
3011.490234	498.577118
3010.628906	342.503296
3009.766602	446.576324
3008.905273	626.164185
3008.042969	501.046722
3007.180664	320.124878
3006.318359	429.938385
3005.455078	344.185272
3004.592773	373.059052
3003.730469	742.736267
3002.867188	576.157227
3002.003906	585.597717
3001.140625	860.308105
3000.277344	934.015625
2999.414063	564.015625
2998.549805	590.422668
2997.686523	854.034607
2996.822266	604.349670
2995.958008	1035.328491
2995.093750	900.151184
2994.229492	539.240112
2993.365234	942.332153
2992.500000	1155.821533
2991.635742	1157.514893
2990.770508	1189.917114
2989.905273	1041.291138
2989.040039	850.996643
2988.174805	1474.041992
2987.309570	921.884644
2986.443359	1258.085327
2985.578125	1274.133057
2984.711914	1206.743042
2983.845703	1470.585449
2982.979492	1325.418701
2982.113281	1155.330933
2981.247070	1221.783569
2980.380859	1438.454590
2979.513672	1624.536255
2978.646484	1326.903564
2977.779297	1249.023804
2976.912109	1365.779907
2976.044922	1199.143066
2975.177734	1499.375244
2974.310547	1566.250244
2973.442383	1610.953003
2972.574219	1641.828613
2971.706055	1792.154663
2970.837891	1634.372925
2969.969727	1332.387939
2969.101563	1568.942261
2968.233398	1641.789917
2967.364258	1484.427124
2966.495117	1535.221680
2965.625977	1599.941406
2964.756836	1836.633545
2963.887695	1976.290283
2963.018555	1697.416138
2962.149414	2022.893799
2961.279297	1885.575562
2960.409180	1917.383301
2959.539063	2112.699951
2958.668945	2108.612061
2957.798828	2087.986572
2956.928711	1815.487793
2956.057617	2058.064209
2955.187500	1987.872437
2954.316406	2103.197754
2953.445313	1872.689941
2952.574219	2162.448486
2951.703125	2134.091064
2950.832031	2130.713379
2949.959961	2166.127686
2949.088867	2226.495117
2948.216797	2383.672607
2947.344727	2410.979248
2946.472656	2222.809082
2945.600586	2178.455811
2944.728516	2009.886230
2943.855469	2360.721680
2942.982422	2023.876221
2942.110352	1781.103516
2941.237305	2203.830078
2940.364258	2452.603027
2939.491211	2292.919678
2938.617188	2083.699707
2937.744141	2059.480225
2936.870117	1850.530762
2935.996094	2052.684570
2935.122070	2381.705322
2934.248047	2175.810059
2933.374023	2036.226929
2932.500000	2150.349121
2931.625000	2234.203125
2930.750977	2152.790283
2929.875977	2446.158447
2929.000977	2150.054199
2928.125977	2118.516846
2927.250977	1921.858643
2926.375000	2218.162109
2925.500000	2371.313232
2924.624023	1841.936035
2923.748047	2116.346436
2922.872070	2319.214600
2921.996094	2241.507080
2921.120117	2023.634155
2920.244141	2259.673828
2919.367188	2058.535400
2918.490234	2280.915283
2917.614258	2104.743896
2916.737305	2497.603516
2915.860352	2244.686523
2914.982422	2393.050781
2914.105469	2005.800903
2913.227539	1973.057129
2912.350586	1879.993896
2911.472656	2143.973877
2910.594727	1817.747437
2909.716797	2230.035156
2908.837891	1854.672974
2907.959961	1989.863892
2907.081055	2089.434326
2906.203125	2095.793701
2905.324219	1715.550293
2904.445313	1623.426270
2903.566406	1907.013306
2902.686523	1982.270996
2901.807617	1693.068970
2900.927734	1390.348389
2900.048828	1526.177368
2899.168945	2061.995361
2898.289063	1836.303589
2897.409180	1906.525269
2896.528320	1462.060425
2895.648438	1915.749878
2894.767578	1674.143433
2893.886719	1755.629883
2893.006836	1508.818970
2892.125000	1631.512573
2891.244141	1469.769775
2890.363281	1570.715210
2889.481445	1463.891846
2888.600586	1447.408813
2887.718750	1195.926392
2886.836914	1770.024414
2885.955078	1701.827637
2885.073242	1622.808716
2884.190430	1218.813721
2883.308594	1293.020996
2882.425781	1099.658447
2881.542969	1575.416504
2880.661133	1346.739258
2879.777344	1443.053589
2878.894531	1291.057251
2878.011719	1109.177002
2877.127930	1443.089844
2876.245117	1198.665771
2875.361328	1090.778687
2874.477539	1236.614502
2873.593750	1267.971802
2872.708984	1157.647339
2871.825195	1216.424072
2870.940430	1310.696533
2870.056641	1099.841187
2869.171875	1041.700073
2868.287109	888.323425
2867.402344	1162.654541
2866.516602	884.215271
2865.631836	891.808960
2864.746094	774.268677
2863.861328	1176.678833
2862.975586	1002.142090
2862.089844	378.811981
2861.204102	677.959717
2860.317383	615.347839
2859.431641	925.395935
2858.544922	705.219299
2857.658203	313.920105
2856.771484	452.863342
2855.884766	874.482361
2854.998047	766.173401
2854.111328	818.270203
2853.223633	691.155151
2852.336914	683.650635
2851.449219	516.017944
2850.561523	701.473694
2849.673828	420.031403
2848.786133	611.024719
2847.897461	821.035706
2847.009766	1082.596802
2846.121094	560.142029
2845.232422	393.258728
2844.343750	516.686768
2843.455078	374.416168
2842.566406	348.845093
2841.676758	708.280762
2840.788086	422.629425
2839.898438	535.492249
2839.008789	461.448181
2838.119141	620.467590
2837.229492	248.647812
2836.339844	85.539406
2835.449219	147.295853
2834.559570	325.501923
2833.668945	425.238434
2832.778320	449.237976
2831.887695	405.656555
2830.997070	670.573914
2830.105469	42.852974
2829.214844	172.659653
2828.323242	188.933060
2827.432617	253.926666
2826.541016	324.386536
2825.649414	413.812286
2824.756836	406.004730
2823.865234	303.693329
2822.972656	196.091522
2822.081055	-81.579346
2821.188477	262.046783
2820.295898	-304.312195
2819.403320	168.960587
2818.510742	377.620667
2817.617188	159.877670
2816.724609	-73.926834
2815.831055	115.995941
2814.937500	87.427902
2814.043945	-24.674250
2813.150391	62.876663
2812.256836	-167.687271
2811.362305	-82.695007
2810.467773	110.146729
2809.574219	238.300858
2808.679688	-134.675171
2807.785156	95.990242
2806.890625	35.740105
2805.995117	2.515397
2805.100586	-30.646854
2804.205078	353.575134
2803.309570	169.761246
2802.414063	325.184509
2801.518555	152.323135
2800.623047	-6.967763
2799.727539	119.002876
2798.831055	-10.509008
2797.934570	29.499844
2797.039063	61.477757
2796.142578	-81.223022
2795.245117	432.039917
2794.348633	-196.985062
2793.452148	52.909340
2792.554688	273.241211
2791.657227	259.864899
2790.760742	192.824036
2789.863281	139.303726
2788.964844	80.499115
2788.067383	-362.109863
2787.169922	91.926704
2786.271484	202.392899
2785.373047	74.084106
2784.474609	114.880821
2783.576172	96.712372
2782.677734	269.010040
2781.779297	347.460968
2780.879883	425.953094
2779.980469	290.035400
2779.082031	256.045593
2778.182617	198.015991
2777.282227	271.352661
2776.382813	194.696182
2775.483398	455.583099
2774.583008	170.167358
2773.682617	297.218231
2772.783203	116.412956
2771.882813	436.249420
2770.981445	30.815264
2770.081055	505.853882
2769.180664	261.142426
2768.279297	324.178955
2767.377930	325.734283
2766.476563	458.364746
2765.575195	601.692932
2764.673828	549.888428
2763.772461	693.251709
2762.870117	494.587646
2761.967773	525.809448
2761.066406	436.841705
2760.164063	892.834045
2759.261719	563.601685
2758.358398	736.506531
2757.456055	653.101135
2756.552734	724.597900
2755.650391	361.096100
2754.747070	608.816101
2753.843750	560.364075
2752.940430	762.714111
2752.036133	671.683533
2751.132813	684.708984
2750.228516	815.099243
2749.324219	876.180908
2748.419922	934.619507
2747.515625	409.479156
2746.611328	590.622803
2745.707031	545.309753
2744.801758	1059.414307
2743.897461	968.847107
2742.992188	755.884338
2742.086914	838.537659
2741.181641	726.892761
2740.275391	881.478333
2739.370117	857.753357
2738.463867	1054.912476
2737.558594	1180.207520
2736.652344	946.462158
2735.746094	1125.011963
2734.839844	832.931030
2733.932617	860.003967
2733.026367	1338.935425
2732.119141	1086.951904
2731.211914	890.884827
2730.304688	1114.663574
2729.397461	1253.408936
2728.490234	1054.858765
2727.583008	1005.108337
2726.674805	1486.403687
2725.767578	1399.503784
2724.859375	1323.297363
2723.951172	1358.600342
2723.042969	1693.734497
2722.133789	1418.674561
2721.225586	1337.339111
2720.316406	1508.008179
2719.407227	1373.735596
2718.499023	1358.817139
2717.588867	1744.207520
2716.679688	1384.789185
2715.770508	1298.439453
2714.860352	1371.123413
2713.951172	1438.497559
2713.041016	1476.764038
2712.130859	1544.171997
2711.220703	1688.367310
2710.310547	1525.474854
2709.399414	1540.008545
2708.489258	1835.054443
2707.578125	1391.854004
2706.666992	1544.044678
2705.755859	1600.993408
2704.844727	1660.592285
2703.933594	1802.165283
2703.021484	1697.871094
2702.109375	1702.007446
2701.198242	1864.723145
2700.286133	1707.691772
2699.374023	1709.255737
2698.460938	1636.894409
2697.548828	1530.230103
2696.635742	1822.383789
2695.723633	1876.823730
2694.810547	1640.903198
2693.897461	1742.923706
2692.984375	1897.712769
2692.071289	2081.496826
2691.157227	1795.673096
2690.243164	1963.644287
2689.330078	1965.416626
2688.416016	2220.361572
2687.501953	1747.594482
2686.587891	2031.525269
2685.672852	1595.895142
2684.758789	2167.023438
2683.843750	2008.189697
2682.928711	2091.779053
2682.013672	1759.210938
2681.098633	2011.385620
2680.183594	1994.929565
2679.267578	2012.734497
2678.352539	2235.840332
2677.436523	2111.520752
2676.520508	1813.592651
2675.604492	2076.145508
2674.688477	1917.762695
2673.772461	1848.864014
2672.855469	2182.339355
2671.938477	1971.491455
2671.022461	1881.629028
2670.105469	2086.192383
2669.187500	2104.139893
2668.270508	1748.984131
2667.353516	1845.798340
2666.435547	2010.900269
2665.517578	1724.264526
2664.600586	1828.945801
2663.682617	1699.970581
2662.763672	1833.549194
2661.845703	2032.689941
2660.927734	1945.757568
2660.008789	1735.573364
2659.089844	1842.866089
2658.170898	1761.295410
2657.251953	1703.361084
2656.333008	1669.051147
2655.413086	1852.357056
2654.494141	1951.718506
2653.574219	1804.738281
2652.654297	1744.277466
2651.734375	1882.943237
2650.814453	1636.532227
2649.894531	1879.934692
2648.973633	1704.329712
2648.053711	1526.153076
2647.132813	1701.431274
2646.211914	1693.453369
2645.291016	1565.113525
2644.370117	1633.042236
2643.448242	1690.506592
2642.527344	1543.932617
2641.605469	1677.233398
2640.683594	1690.223511
2639.761719	1488.845825
2638.839844	1525.389282
2637.917969	1389.443359
2636.995117	1418.173462
2636.072266	1650.667358
2635.150391	1540.890137
2634.227539	1598.311279
2633.304688	1206.585449
2632.380859	1198.789795
2631.458008	1553.817505
2630.534180	1177.966309
2629.611328	1245.836304
2628.687500	1389.361938
2627.763672	1128.496460
2626.839844	1420.661377
2625.915039	1381.553467
2624.991211	1436.303833
2624.066406	1298.136108
2623.141602	1167.831665
2622.216797	891.622681
2621.291992	1196.567383
2620.367188	797.989685
2619.442383	1149.727295
2618.516602	1173.210938
2617.590820	1199.282837
2616.665039	1152.442505
2615.739258	1376.340088
2614.813477	1290.434448
2613.887695	1235.777832
2612.960938	1071.873413
2612.035156	848.163391
2611.108398	1246.181519
2610.181641	970.508301
2609.254883	723.520264
2608.328125	975.754333
2607.400391	952.389221
2606.473633	1113.527588
2605.545898	856.267334
2604.618164	1092.710449
2603.690430	1025.147827
2602.762695	887.471680
2601.834961	973.154358
2600.906250	840.724243
2599.977539	755.050842
2599.049805	793.964783
2598.121094	684.950684
2597.191406	752.416382
2596.262695	500.742096
2595.333984	894.997131
2594.404297	1063.502686
2593.474609	570.735840
2592.545898	358.093658
2591.615234	793.575378
2590.685547	669.077759
2589.755859	990.306763
2588.825195	528.995605
2587.895508	803.489624
2586.964844	368.231995
2586.034180	640.063293
2585.103516	598.500793
2584.171875	479.291382
2583.241211	336.794189
2582.309570	486.778442
2581.378906	447.796783
2580.447266	584.749146
2579.515625	558.681335
2578.583008	429.175934
2577.651367	426.383453
2576.719727	335.673584
2575.787109	389.748047
2574.854492	392.099976
2573.921875	456.451782
2572.989258	241.727097
2572.055664	455.893127
2571.123047	-4.166873
2570.189453	370.044220
2569.256836	429.095306
2568.323242	356.463867
2567.389648	309.647156
2566.455078	126.067345
2565.521484	347.619690
2564.586914	380.763916
2563.653320	264.252838
2562.718750	268.991364
2561.784180	418.111694
2560.849609	231.996429
2559.914063	347.538269
2558.979492	241.351547
2558.043945	503.700378
2557.108398	80.584244
2556.172852	159.926758
2555.237305	347.399628
2554.301758	220.608109
2553.365234	312.712280
2552.429688	26.309347
2551.493164	115.797768
2550.556641	19.935051
2549.620117	304.912415
2548.683594	245.022614
2547.746094	244.310364
2546.809570	264.134918
2545.872070	199.083862
2544.934570	-76.796074
2543.997070	369.742981
2543.059570	-60.336246
2542.122070	-4.606220
2541.183594	233.524445
2540.246094	-85.930298
2539.307617	231.710495
2538.369141	-54.287468
2537.430664	204.136185
2536.492188	-174.237473
2535.552734	104.620270
2534.614258	229.360458
2533.674805	117.972275
2532.735352	155.401291
2531.795898	-22.684685
2530.856445	163.458328
2529.916016	208.489700
2528.976563	191.928085
2528.036133	377.879425
2527.095703	192.094238
2526.155273	-257.617126
2525.214844	153.713959
2524.274414	201.100998
2523.333984	299.672729
2522.392578	280.391052
2521.451172	33.196064
2520.509766	362.093475
2519.568359	475.833160
2518.626953	182.573151
2517.684570	234.847412
2516.743164	197.515320
2515.800781	57.855812
2514.858398	217.461624
2513.916016	128.930267
2512.973633	-64.431755
2512.031250	151.268005
2511.087891	167.510529
2510.145508	132.593170
2509.202148	5.687009
2508.258789	172.586166
2507.315430	147.823715
2506.371094	128.163696
2505.427734	77.819817
2504.483398	111.728424
2503.539063	352.361572
2502.595703	113.046974
2501.650391	14.158481
2500.706055	157.640335
2499.761719	30.638258
2498.816406	-73.385788
2497.871094	-24.397003
2496.926758	-54.513771
2495.981445	216.182007
2495.035156	101.885414
2494.089844	-7.323663
2493.144531	59.287151
2492.198242	69.809456
2491.251953	210.204102
2490.305664	67.821564
2489.359375	149.536743
2488.413086	-15.769611
2487.465820	40.423618
2486.518555	259.455383
2485.572266	7.589647
2484.625000	152.701584
2483.677734	7.726003
2482.729492	56.082253
2481.782227	5.195952
2480.833984	-124.518936
2479.886719	152.522552
2478.938477	170.184418
2477.990234	246.258133
2477.041992	164.729950
2476.092773	200.073639
2475.144531	192.174362
2474.195313	85.206276
2473.246094	89.967918
2472.296875	280.034393
2471.347656	-172.239899
2470.398438	185.250458
2469.448242	291.371521
2468.499023	252.784454
2467.548828	120.322975
2466.598633	36.062286
2465.648438	139.458359
2464.697266	4.449363
2463.747070	74.786659
2462.795898	325.046783
2461.845703	2.409990
2460.894531	361.486816
2459.943359	261.839081
2458.991211	-7.518153
2458.040039	265.162079
2457.088867	23.660540
2456.136719	98.699181
2455.184570	59.758961
2454.232422	63.823227
2453.280273	17.235668
2452.327148	152.814774
2451.375000	199.756393
2450.421875	-130.222443
2449.468750	119.006004
2448.515625	140.544205
2447.562500	179.734879
2446.609375	-195.673965
2445.655273	83.590950
2444.702148	256.584442
2443.748047	50.520103
2442.793945	-69.627419
2441.839844	27.434818
2440.885742	134.527084
2439.930664	-33.649860
2438.976563	10.230818
2438.021484	-56.986961
2437.066406	29.718613
2436.111328	131.496918
2435.156250	96.973907
2434.200195	-0.625484
2433.245117	143.865921
2432.289063	-9.259246
2431.333008	316.640228
2430.376953	324.785065
2429.420898	171.589233
2428.464844	-64.752899
2427.507813	-79.330193
2426.551758	-187.158447
2425.594727	-204.307922
2424.637695	168.835571
2423.680664	262.340363
2422.722656	-336.504639
2421.765625	300.646484
2420.807617	34.102974
2419.849609	67.033897
2418.892578	37.009888
2417.933594	-53.391922
2416.975586	74.986664
2416.017578	72.528122
2415.058594	52.442879
2414.099609	22.269432
2413.140625	-23.013708
2412.181641	-123.604790
2411.222656	-40.791908
2410.263672	89.683731
2409.304688	142.215683
2408.343750	-126.727936
2407.384766	26.176311
2406.423828	133.823578
2405.464844	-74.885231
2404.503906	-115.402931
2403.542969	-90.708244
2402.582031	-83.622429
2401.621094	13.721696
2400.660156	23.215744
2399.699219	-22.498674
2398.738281	89.711266
2397.777344	299.606323
2396.816406	78.308556
2395.853516	65.050644
2394.892578	66.772499
2393.929688	-119.409302
2392.968750	-160.317169
2392.005859	-73.516548
2391.042969	-194.603134
2390.080078	-50.325943
2389.117188	-96.365616
2388.154297	55.275917
2387.191406	-68.414017
2386.228516	-94.534035
2385.263672	76.941528
2384.300781	15.713305
2383.337891	-170.564056
2382.373047	213.233475
2381.408203	281.897766
2380.445313	150.534485
2379.480469	149.135605
2378.515625	57.751022
2377.550781	31.307550
2376.585938	489.385284
2375.621094	158.130768
2374.656250	94.110428
2373.691406	209.817459
2372.724609	163.218796
2371.759766	129.057373
2370.792969	361.875336
2369.828125	252.767471
2368.861328	245.944565
2367.894531	64.502434
2366.927734	7.759463
2365.962891	-73.951767
2364.996094	150.952835
2364.027344	94.120552
2363.060547	97.058495
2362.093750	-79.435997
2361.126953	122.742584
2360.158203	83.228065
2359.191406	-90.805717
2358.222656	128.601120
2357.255859	103.907898
2356.287109	-50.234413
2355.318359	173.916611
2354.349609	198.891312
2353.380859	-74.728249
2352.412109	99.448631
2351.443359	57.153450
2350.474609	-2.572723
2349.505859	136.580719
2348.535156	-228.963364
2347.566406	61.715042
2346.595703	232.991776
2345.626953	58.795959
2344.656250	1.390819
2343.685547	184.894806
2342.714844	10.688823
2341.744141	189.087402
2340.773438	44.651169
2339.802734	-12.900101
2338.832031	93.325272
2337.861328	261.510925
2336.888672	-150.928040
2335.917969	113.906876
2334.945313	276.943298
2333.974609	370.442383
2333.001953	201.075592
2332.029297	284.575592
2331.056641	177.164185
2330.085938	213.467056
2329.113281	343.884460
2328.138672	315.687714
2327.166016	-12.255363
2326.193359	170.026245
2325.220703	60.032639
2324.246094	6.990314
2323.273438	-115.393425
2322.298828	34.472946
2321.324219	-18.653517
2320.351563	-163.353333
2319.376953	-70.560837
2318.402344	17.216614
2317.427734	-270.942780
2316.453125	-104.119965
2315.478516	144.187088
2314.503906	14.218684
2313.527344	-26.769239
2312.552734	258.352295
2311.576172	-42.128712
2310.601563	-46.161057
2309.625000	36.216808
2308.648438	-34.558323
2307.673828	-137.452667
2306.697266	218.776138
2305.720703	-209.959305
2304.744141	-19.235071
2303.767578	-206.084259
2302.789063	14.114403
2301.812500	-71.633392
2300.835938	-51.353752
2299.857422	72.445496
2298.880859	-1.052774
2297.902344	-3.076319
2296.923828	-209.673752
2295.945313	69.150162
2294.968750	81.776863
2293.990234	-36.169468
2293.011719	72.454277
2292.031250	65.288086
2291.052734	-109.328651
2290.074219	-50.084000
2289.095703	166.613953
2288.115234	-32.638073
2287.136719	-44.889748
2286.156250	124.865707
2285.175781	14.152850
2284.195313	70.655388
2283.216797	-118.769730
2282.236328	43.371010
2281.255859	-82.144608
2280.273438	72.503212
2279.292969	256.540375
2278.312500	42.508396
2277.332031	236.245316
2276.349609	363.585266
2275.369141	161.814316
2274.386719	178.579086
2273.404297	16.117935
2272.423828	5.828638
2271.441406	-48.652332
2270.458984	198.619614
2269.476563	43.484444
2268.494141	42.878788
2267.509766	5.466263
2266.527344	-9.911139
2265.544922	217.370224
2264.560547	157.786270
2263.578125	235.413773
2262.593750	67.971947
2261.611328	49.979252
2260.626953	176.480804
2259.642578	229.438568
2258.658203	196.646606
2257.673828	-85.881279
2256.689453	42.875519
2255.705078	32.056778
2254.718750	199.844772
2253.734375	264.782471
2252.750000	155.989731
2251.763672	-16.382643
2250.779297	263.652100
2249.792969	247.731354
2248.806641	214.672318
2247.820313	176.702637
2246.833984	124.051949
2245.847656	296.174469
2244.861328	260.557648
2243.875000	183.398834
2242.888672	279.625916
2241.900391	-14.881444
2240.914063	-11.486764
2239.925781	33.377712
2238.939453	205.096741
2237.951172	232.768127
2236.962891	199.406113
2235.976563	85.521286
2234.988281	86.277489
2234.000000	28.479185
2233.011719	51.127491
2232.021484	46.929588
2231.033203	227.931396
2230.044922	118.851868
2229.054688	116.990799
2228.066406	-128.516678
2227.076172	27.924917
2226.087891	120.961693
2225.097656	308.905701
2224.107422	-145.951675
2223.117188	275.588928
2222.126953	-16.112963
2221.136719	-98.483994
2220.146484	52.701565
2219.154297	-12.678970
2218.164063	135.953110
2217.173828	60.791576
2216.181641	73.157936
2215.191406	216.755249
2214.199219	190.147202
2213.207031	22.573128
2212.214844	122.293892
2211.222656	149.075272
2210.230469	246.258209
2209.238281	136.958069
2208.246094	-28.179499
2207.253906	73.756775
2206.259766	182.918884
2205.267578	359.967072
2204.273438	124.427765
2203.281250	-186.273911
2202.287109	-84.525795
2201.292969	111.748047
2200.300781	-94.606720
2199.306641	36.090126
2198.312500	-141.143921
2197.318359	105.802589
2196.322266	112.737396
2195.328125	129.332520
2194.333984	-91.509537
2193.337891	179.386963
2192.343750	57.848637
2191.347656	-138.733185
2190.351563	-27.819122
2189.357422	228.260300
2188.361328	-84.493546
2187.365234	-41.470818
2186.369141	76.511246
2185.373047	259.740875
2184.376953	19.644951
2183.378906	127.815712
2182.382813	264.936279
2181.384766	0.713337
2180.388672	297.278473
2179.390625	-65.987999
2178.394531	150.709747
2177.396484	-57.853573
2176.398438	30.714632
2175.400391	155.453583
2174.402344	297.030396
2173.404297	28.132727
2172.406250	97.225555
2171.406250	335.208160
2170.408203	73.607552
2169.408203	166.717239
2168.410156	42.676685
2167.410156	15.127865
2166.412109	120.187973
2165.412109	324.042755
2164.412109	84.265022
2163.412109	37.357883
2162.412109	120.571472
2161.412109	174.822906
2160.412109	195.309616
2159.410156	256.715515
2158.410156	65.219025
2157.408203	138.622391
2156.408203	209.571014
2155.406250	208.268311
2154.404297	291.175293
2153.404297	94.913208
2152.402344	134.465546
2151.400391	236.524857
2150.398438	146.130310
2149.396484	74.982285
2148.392578	-111.562912
2147.390625	295.672089
2146.388672	207.651077
2145.384766	102.819160
2144.382813	228.651764
2143.378906	54.147289
2142.375000	199.124603
2141.371094	154.321152
2140.367188	128.721451
2139.363281	107.912544
2138.359375	291.113342
2137.355469	119.056404
2136.351563	215.777023
2135.347656	307.649353
2134.341797	138.019455
2133.337891	407.308899
2132.332031	168.144180
2131.326172	331.816223
2130.322266	200.575150
2129.316406	426.465179
2128.310547	256.876984
2127.304688	233.476715
2126.298828	315.467651
2125.292969	86.052055
2124.285156	-104.988777
2123.279297	32.035919
2122.271484	-0.967737
2121.265625	37.826908
2120.257813	210.608063
2119.251953	282.819702
2118.244141	-164.143082
2117.236328	39.632236
2116.228516	338.985626
2115.220703	219.773682
2114.212891	270.328552
2113.205078	-90.290016
2112.195313	153.856064
2111.187500	192.402664
2110.179688	218.975433
2109.169922	61.588593
2108.160156	88.145134
2107.152344	23.932936
2106.142578	28.968481
2105.132813	-114.018974
2104.123047	27.056646
2103.113281	151.366379
2102.103516	182.566605
2101.093750	177.957275
2100.082031	87.467392
2099.072266	35.151432
2098.060547	102.060608
2097.050781	319.129395
2096.039063	111.822937
2095.027344	-4.865547
2094.017578	271.646088
2093.005859	359.836548
2091.994141	-45.105602
2090.982422	195.511185
2089.968750	50.265072
2088.957031	266.952271
2087.945313	-28.254335
2086.931641	52.683346
2085.919922	250.187607
2084.906250	395.268982
2083.894531	40.715107
2082.880859	33.532516
2081.867188	128.602402
2080.853516	45.296009
2079.839844	-109.314285
2078.826172	76.022636
2077.812500	56.900661
2076.796875	-116.678505
2075.783203	-24.122202
2074.769531	51.765633
2073.753906	227.366531
2072.738281	8.714238
2071.724609	-133.901596
2070.708984	46.360031
2069.693359	-250.509079
2068.677734	93.431625
2067.662109	138.295563
2066.646484	-75.442520
2065.630859	9.736048
2064.613281	90.133537
2063.597656	198.948517
2062.580078	-109.524185
2061.564453	-93.171890
2060.546875	129.346069
2059.529297	-193.205872
2058.511719	93.203644
2057.496094	-68.178444
2056.478516	-35.313366
2055.458984	33.050907
2054.441406	172.411087
2053.423828	157.852493
2052.406250	8.384071
2051.386719	17.503180
2050.369141	-86.954491
2049.349609	-35.257023
2048.330078	-47.444508
2047.312500	143.738907
2046.292969	25.111980
2045.273438	-6.013788
2044.253906	-72.591400
2043.234375	-68.256462
2042.212891	77.840805
2041.193359	-168.284958
2040.173828	-137.974365
2039.152344	265.466064
2038.132813	28.856737
2037.111328	167.701706
2036.089844	162.503006
2035.068359	81.776405
2034.048828	180.411682
2033.027344	300.240967
2032.005859	59.105183
2030.982422	58.615757
2029.960938	145.374451
2028.939453	-102.705566
2027.916016	299.930420
2026.894531	245.170395
2025.871094	256.407837
2024.849609	-10.396956
2023.826172	274.145538
2022.802734	0.350031
2021.779297	155.259567
2020.755859	246.537384
2019.732422	366.031219
2018.708984	9.998058
2017.683594	-75.271141
2016.660156	192.450592
2015.634766	264.803711
2014.611328	332.425354
2013.585938	240.087753
2012.562500	56.068741
2011.537109	198.915894
2010.511719	285.294556
2009.486328	334.035919
2008.460938	206.508194
2007.435547	339.824829
2006.408203	303.950562
2005.382813	162.389801
2004.357422	253.368057
2003.330078	158.816864
2002.302734	364.794159
2001.277344	129.416473
2000.250000	128.801651
1999.222656	231.428528
1998.195313	209.678070
1997.167969	239.536743
1996.140625	-65.995392
1995.113281	294.531036
1994.085938	218.852417
1993.056641	-100.595795
1992.029297	168.346146
1991.000000	22.419071
1989.970703	174.098923
1988.943359	234.366516
1987.914063	229.031036
1986.884766	104.262756
1985.855469	-123.487045
1984.826172	285.601074
1983.796875	139.818207
1982.767578	52.589294
1981.736328	2.826287
1980.707031	201.067871
1979.675781	177.026535
1978.646484	29.041754
1977.615234	-32.376125
1976.583984	102.613083
1975.552734	24.840546
1974.521484	199.508499
1973.490234	0.234238
1972.458984	69.711220
1971.427734	-43.041908
1970.396484	192.250351
1969.363281	112.207001
1968.332031	151.270004
1967.298828	45.583549
1966.267578	26.295624
1965.234375	165.703751
1964.201172	-135.925171
1963.167969	38.460735
1962.134766	12.192602
1961.101563	125.864281
1960.068359	-40.311241
1959.035156	26.707138
1958.000000	5.127347
1956.966797	-137.633163
1955.931641	-12.372520
1954.898438	94.212463
1953.863281	137.867630
1952.828125	-88.657730
1951.792969	92.408928
1950.757813	-1.317059
1949.722656	-108.976234
1948.687500	-118.842926
1947.652344	266.905243
1946.615234	-73.410507
1945.580078	-66.984146
1944.542969	-146.618561
1943.507813	29.589872
1942.470703	122.035576
1941.433594	-117.991234
1940.398438	-297.499176
1939.361328	-100.454132
1938.324219	31.468269
1937.287109	-66.651802
1936.248047	-211.193207
1935.210938	-102.531746
1934.173828	-223.789459
1933.134766	-96.581512
1932.097656	-46.014229
1931.058594	-143.999649
1930.019531	-53.983971
1928.980469	12.804373
1927.941406	-27.134537
1926.902344	-71.694176
1925.863281	-106.958443
1924.824219	64.151848
1923.785156	-140.345657
1922.746094	-80.533882
1921.705078	153.072708
1920.666016	83.068726
1919.625000	57.109730
1918.583984	232.683990
1917.544922	292.409576
1916.503906	-27.629122
1915.462891	-141.507401
1914.421875	3.913507
1913.378906	65.972725
1912.337891	236.776413
1911.296875	95.189079
1910.253906	-69.477448
1909.212891	-55.993076
1908.169922	214.176926
1907.128906	33.406147
1906.085938	157.846558
1905.042969	0.270438
1904.000000	90.023560
1902.957031	154.337448
1901.914063	91.577393
1900.871094	181.289368
1899.826172	-33.862118
1898.783203	83.563690
1897.740234	221.734192
1896.695313	25.169415
1895.650391	-83.624130
1894.607422	160.670578
1893.562500	197.251740
1892.517578	33.144371
1891.472656	447.988190
1890.427734	-59.678619
1889.382813	78.389091
1888.335938	274.047394
1887.291016	-5.139256
1886.244141	114.437698
1885.199219	118.781136
1884.152344	56.324860
1883.105469	46.872089
1882.060547	332.200592
1881.013672	398.703247
1879.966797	-27.460314
1878.919922	89.734367
1877.873047	147.063736
1876.824219	-7.307411
1875.777344	263.989746
1874.728516	24.560198
1873.681641	79.595917
1872.632813	-178.102753
1871.585938	10.310428
1870.537109	127.410278
1869.488281	-77.280457
1868.439453	-17.634775
1867.390625	156.875717
1866.341797	209.588943
1865.291016	-222.323242
1864.242188	266.765411
1863.193359	177.108734
1862.142578	381.329803
1861.093750	112.674835
1860.042969	82.782532
1858.992188	270.884430
1857.941406	259.346771
1856.890625	312.046570
1855.839844	-45.767090
1854.789063	-11.357822
1853.738281	172.065430
1852.687500	151.433395
1851.634766	220.197418
1850.583984	245.412003
1849.531250	176.696625
1848.478516	142.372467
1847.427734	247.777283
1846.375000	16.542391
1845.322266	241.007477
1844.269531	337.216522
1843.216797	44.317081
1842.162109	-56.252045
1841.109375	39.989059
1840.056641	-53.662388
1839.001953	40.280369
1837.949219	177.652573
1836.894531	4.030258
1835.839844	75.087883
1834.785156	111.846977
1833.732422	-6.798361
1832.677734	4.848170
1831.621094	2.795464
1830.566406	39.585510
1829.511719	174.576279
1828.457031	234.180893
1827.400391	291.493744
1826.343750	95.424500
1825.289063	264.594604
1824.232422	219.222153
1823.175781	-38.305717
1822.119141	190.146774
1821.062500	311.338440
1820.005859	288.836731
1818.949219	145.514694
1817.892578	316.839203
1816.833984	157.628494
1815.777344	-60.768429
1814.718750	92.312233
1813.662109	227.127609
1812.603516	273.079895
1811.544922	16.142832
1810.486328	196.478607
1809.427734	33.002277
1808.369141	101.765640
1807.310547	236.516785
1806.251953	491.832886
1805.191406	80.483620
1804.132813	83.274506
1803.072266	63.334694
1802.013672	259.436432
1800.953125	-44.695328
1799.892578	226.398285
1798.832031	376.956543
1797.771484	157.073273
1796.710938	407.587341
1795.650391	210.513443
1794.589844	315.597687
1793.527344	134.527008
1792.466797	141.981400
1791.404297	430.945007
1790.343750	197.777496
1789.281250	171.215973
1788.218750	326.196655
1787.156250	265.617950
1786.093750	583.870605
1785.031250	140.024841
1783.968750	133.966507
1782.906250	239.011063
1781.841797	434.704041
1780.779297	417.306000
1779.714844	454.312347
1778.652344	364.443542
1777.587891	469.428406
1776.523438	277.696075
1775.458984	507.232880
1774.394531	426.525146
1773.330078	488.471375
1772.265625	344.447540
1771.201172	641.760315
1770.134766	554.352051
1769.070313	496.391876
1768.003906	397.753693
1766.939453	507.213074
1765.873047	677.699585
1764.806641	427.654755
1763.740234	699.839355
1762.673828	693.974060
1761.607422	369.525757
1760.541016	596.440674
1759.474609	620.000183
1758.406250	684.220032
1757.339844	608.431030
1756.271484	799.087646
1755.205078	748.162109
1754.136719	708.553345
1753.068359	556.144958
1752.000000	800.887207
1750.931641	585.379700
1749.863281	696.992493
1748.794922	544.743347
1747.726563	658.608643
1746.656250	718.349792
1745.587891	825.414001
1744.517578	817.528931
1743.449219	678.974731
1742.378906	833.345337
1741.308594	627.293579
1740.238281	952.802795
1739.167969	953.980408
1738.097656	952.919312
1737.027344	697.522827
1735.957031	847.319214
1734.884766	459.297577
1733.814453	946.576538
1732.742188	900.604980
1731.671875	719.718140
1730.599609	806.497803
1729.527344	902.255737
1728.455078	1069.928345
1727.382813	673.433777
1726.310547	901.790466
1725.238281	1015.499451
1724.166016	888.822510
1723.091797	1002.528198
1722.019531	1051.084229
1720.945313	1016.566895
1719.871094	1098.809204
1718.798828	983.519104
1717.724609	1054.548340
1716.650391	932.604797
1715.576172	1147.224731
1714.501953	1186.832764
1713.427734	876.591248
1712.351563	1221.211304
1711.277344	881.952087
1710.201172	968.711792
1709.126953	1122.688965
1708.050781	1099.610840
1706.974609	1296.114868
1705.900391	1089.360596
1704.824219	1164.889160
1703.748047	1092.615967
1702.669922	1262.185303
1701.593750	1335.453491
1700.517578	1169.230469
1699.439453	1327.557129
1698.363281	1479.131348
1697.285156	1196.690796
1696.208984	1659.158936
1695.130859	1202.384766
1694.052734	1389.715332
1692.974609	1440.631958
1691.896484	1484.841919
1690.818359	1517.877319
1689.740234	1765.418823
1688.660156	1445.454590
1687.582031	1608.077759
1686.501953	1875.628784
1685.423828	1727.781738
1684.343750	1736.279785
1683.263672	1887.649170
1682.183594	1934.089355
1681.103516	2208.132324
1680.023438	2080.512695
1678.943359	2037.715576
1677.863281	2135.456787
1676.783203	2266.628418
1675.701172	2134.689941
1674.621094	2305.974609
1673.539063	2254.340820
1672.457031	2652.881348
1671.375000	2676.991699
1670.294922	2765.708740
1669.212891	2531.454590
1668.128906	2963.151855
1667.046875	2849.209229
1665.964844	3015.819092
1664.882813	2786.193848
1663.798828	3157.533691
1662.716797	3424.182861
1661.632813	3577.302979
1660.548828	3699.246826
1659.464844	3485.346436
1658.380859	3714.027832
1657.296875	3684.755615
1656.212891	4233.445801
1655.128906	4055.221436
1654.044922	4492.592285
1652.958984	4501.045898
1651.875000	5007.087891
1650.789063	4922.200684
1649.705078	5290.356934
1648.619141	5576.260254
1647.533203	5804.367676
1646.447266	6227.729004
1645.361328	6662.061035
1644.275391	6967.573730
1643.189453	7543.641113
1642.101563	8086.265625
1641.015625	8595.455078
1639.929688	9046.841797
1638.841797	9934.823242
1637.753906	10292.776367
1636.666016	10920.993164
1635.580078	12116.247070
1634.492188	12825.947266
1633.404297	13555.362305
1632.314453	14034.296875
1631.226563	15051.152344
1630.138672	15773.230469
1629.048828	16798.345703
1627.960938	17668.201172
1626.871094	18506.808594
1625.781250	19652.677734
1624.693359	20623.419922
1623.603516	20956.890625
1622.513672	22254.400391
1621.423828	22905.892578
1620.332031	23431.185547
1619.242188	24219.322266
1618.152344	24912.189453
1617.060547	25174.000000
1615.970703	26049.863281
1614.878906	26424.068359
1613.787109	27184.628906
1612.695313	27551.925781
1611.605469	27735.876953
1610.511719	27705.693359
1609.419922	28169.865234
1608.328125	28766.287109
1607.236328	28643.326172
1606.142578	29120.392578
1605.050781	29641.416016
1603.957031	29805.072266
1602.865234	30039.236328
1601.771484	29925.060547
1600.677734	30679.283203
1599.583984	30366.751953
1598.490234	30953.232422
1597.396484	30790.580078
1596.302734	30975.986328
1595.207031	31414.582031
1594.113281	30838.060547
1593.017578	31252.351563
1591.923828	31761.154297
1590.828125	31288.343750
1589.732422	31502.175781
1588.636719	31641.156250
1587.541016	31329.210938
1586.445313	31358.246094
1585.349609	31200.398438
1584.253906	30873.339844
1583.156250	30887.103516
1582.060547	30481.125000
1580.962891	29776.478516
1579.865234	29783.875000
1578.769531	29279.486328
1577.671875	29210.126953
1576.574219	28971.734375
1575.476563	28586.343750
1574.378906	28108.902344
1573.279297	27552.634766
1572.181641	27553.919922
1571.083984	26690.806641
1569.984375	26461.945313
1568.886719	25818.656250
1567.787109	25583.474609
1566.687500	24754.226563
1565.587891	24804.302734
1564.488281	24501.509766
1563.388672	24312.789063
1562.289063	23661.839844
1561.189453	23155.712891
1560.087891	22840.324219
1558.988281	22470.310547
1557.886719	21982.203125
1556.787109	21630.000000
1555.685547	21249.480469
1554.583984	20910.685547
1553.482422	20801.765625
1552.380859	20489.443359
1551.279297	20017.566406
1550.177734	19622.408203
1549.074219	19242.714844
1547.972656	18893.759766
1546.871094	19054.242188
1545.767578	18635.541016
1544.664063	18155.812500
1543.560547	17960.279297
1542.458984	17740.791016
1541.355469	17346.679688
1540.250000	17048.804688
1539.146484	16840.550781
1538.042969	17003.480469
1536.939453	16406.841797
1535.833984	16074.472656
1534.730469	16202.585938
1533.625000	15824.583984
1532.519531	15826.232422
1531.414063	15622.911133
1530.310547	15517.779297
1529.205078	15011.592773
1528.097656	14963.315430
1526.992188	14520.623047
1525.886719	14574.876953
1524.779297	14555.068359
1523.673828	14685.563477
1522.566406	13947.108398
1521.460938	14293.258789
1520.353516	14193.023438
1519.246094	13770.690430
1518.138672	13705.428711
1517.031250	13429.138672
1515.923828	13899.180664
1514.816406	13053.079102
1513.707031	13309.932617
1512.599609	13281.849609
1511.490234	13488.604492
1510.382813	12969.266602
1509.273438	12971.738281
1508.164063	12487.470703
1507.054688	12978.902344
1505.945313	12709.884766
1504.835938	12608.209961
1503.726563	12780.204102
1502.615234	12698.132813
1501.505859	12653.002930
1500.394531	12712.093750
1499.285156	12354.515625
1498.173828	12259.617188
1497.062500	12496.681641
1495.951172	12249.994141
1494.839844	12131.356445
1493.728516	12394.389648
1492.617188	11926.766602
1491.505859	12040.216797
1490.394531	12064.791016
1489.281250	12236.725586
1488.169922	11912.494141
1487.056641	12149.411133
1485.943359	12052.745117
1484.830078	11795.890625
1483.716797	11816.256836
1482.603516	12031.447266
1481.490234	11963.065430
1480.376953	11857.936523
1479.263672	11772.331055
1478.148438	11712.737305
1477.035156	11966.775391
1475.919922	11757.992188
1474.804688	11927.660156
1473.689453	11816.262695
1472.576172	11618.458008
1471.460938	11848.618164
1470.343750	11787.043945
1469.228516	11749.258789
1468.113281	11838.935547
1466.998047	11747.200195
1465.880859	11765.637695
1464.765625	12183.450195
1463.648438	11506.829102
1462.531250	11883.583984
1461.414063	11787.691406
1460.296875	12213.923828
1459.179688	12025.291016
1458.062500	11929.474609
1456.945313	12415.888672
1455.826172	12223.065430
1454.708984	12368.727539
1453.589844	12266.525391
1452.472656	12241.936523
1451.353516	12430.669922
1450.234375	12520.267578
1449.115234	12428.941406
1447.996094	12359.196289
1446.876953	12539.234375
1445.757813	12710.617188
1444.638672	13095.033203
1443.517578	12909.094727
1442.398438	12955.589844
1441.277344	13042.965820
1440.156250	13345.411133
1439.037109	13372.501953
1437.916016	13461.963867
1436.794922	13648.148438
1435.673828	14122.296875
1434.550781	14054.768555
1433.429688	14288.079102
1432.308594	14291.459961
1431.185547	14537.579102
1430.064453	14485.114258
1428.941406	14793.417969
1427.818359	15005.026367
1426.695313	14898.907227
1425.572266	15359.405273
1424.449219	15298.353516
1423.326172	15724.333984
1422.203125	15985.023438
1421.080078	15782.400391
1419.955078	15944.397461
1418.832031	16340.032227
1417.707031	16549.070313
1416.582031	16940.226563
1415.457031	17217.693359
1414.332031	17398.675781
1413.207031	17350.406250
1412.082031	17617.005859
1410.957031	18305.380859
1409.832031	18310.556641
1408.705078	18238.695313
1407.580078	19031.539063
1406.453125	19237.800781
1405.326172	19570.244141
1404.201172	19846.962891
1403.074219	19860.533203
1401.947266	20571.261719
1400.820313	20781.447266
1399.691406	21216.052734
1398.564453	21436.775391
1397.437500	21866.873047
1396.308594	22367.359375
1395.181641	22451.099609
1394.052734	22814.646484
1392.923828	22872.697266
1391.794922	23603.343750
1390.666016	23750.941406
1389.537109	24214.410156
1388.408203	24756.705078
1387.279297	25251.884766
1386.148438	26288.816406
1385.019531	25879.177734
1383.888672	26806.916016
1382.759766	26747.070313
1381.628906	27755.396484
1380.498047	28187.855469
1379.367188	28554.115234
1378.236328	28992.718750
1377.105469	29424.794922
1375.974609	29948.345703
1374.841797	30599.531250
1373.710938	31122.730469
1372.578125	31501.003906
1371.447266	32206.980469
1370.314453	34421.769531
1369.181641	35146.207031
1368.048828	33455.511719
1366.916016	34001.203125
1365.783203	34921.070313
1364.650391	35064.433594
1363.515625	36037.011719
1362.382813	36129.144531
1361.248047	36253.164063
1360.115234	37097.566406
1358.980469	37501.878906
1357.845703	37583.156250
1356.710938	38133.839844
1355.576172	37970.789063
1354.441406	38799.414063
1353.306641	38827.402344
1352.171875	39027.332031
1351.035156	38764.562500
1349.900391	39520.406250
1348.763672	39771.085938
1347.626953	39896.550781
1346.492188	39447.226563
1345.355469	39746.613281
1344.218750	39318.707031
1343.082031	39465.417969
1341.943359	39196.707031
1340.806641	38834.851563
1339.669922	38636.269531
1338.531250	38545.816406
1337.394531	38501.992188
1336.255859	37905.511719
1335.117188	37548.500000
1333.978516	36933.367188
1332.839844	36724.828125
1331.701172	36203.179688
1330.562500	35459.562500
1329.423828	35285.273438
1328.283203	34888.980469
1327.144531	34630.285156
1326.003906	33515.375000
1324.865234	33157.671875
1323.724609	32425.998047
1322.583984	32520.888672
1321.443359	31483.220703
1320.302734	31096.599609
1319.162109	30401.736328
1318.019531	29975.345703
1316.878906	29420.298828
1315.736328	28745.130859
1314.595703	28087.080078
1313.453125	27935.789063
1312.310547	27100.896484
1311.169922	26293.712891
1310.027344	25955.109375
1308.884766	25348.794922
1307.740234	24926.167969
1306.597656	24442.542969
1305.455078	23860.023438
1304.310547	23570.687500
1303.167969	23167.656250
1302.023438	22440.335938
1300.878906	22126.154297
1299.734375	21401.386719
1298.591797	21085.398438
1297.445313	20685.341797
1296.300781	20188.583984
1295.156250	19736.210938
1294.011719	19446.044922
1292.865234	18943.496094
1291.720703	18689.355469
1290.574219	18275.476563
1289.427734	17794.457031
1288.281250	17494.441406
1287.134766	17188.234375
1285.988281	16966.222656
1284.841797	16302.979492
1283.695313	16045.501953
1282.548828	15641.070313
1281.400391	15442.650391
1280.253906	15030.087891
1279.105469	14802.469727
1277.957031	14665.219727
1276.808594	14150.204102
1275.660156	13966.968750
1274.511719	13790.106445
1273.363281	13107.708984
1272.214844	13075.817383
1271.066406	12867.781250
1269.916016	12599.033203
1268.767578	12112.339844
1267.617188	12042.979492
1266.466797	11753.593750
1265.316406	11353.263672
1264.166016	11365.822266
1263.015625	11250.608398
1261.865234	10662.115234
1260.714844	10888.420898
1259.564453	10486.556641
1258.412109	10250.229492
1257.261719	10051.657227
1256.109375	9886.665039
1254.957031	9792.879883
1253.804688	9473.212891
1252.652344	9454.855469
1251.500000	9246.217773
1250.347656	9368.019531
1249.195313	9002.708984
1248.042969	8668.889648
1246.888672	8876.466797
1245.736328	8423.712891
1244.582031	8326.284180
1243.427734	7944.837402
1242.273438	8202.575195
1241.119141	8076.043945
1239.964844	7934.956543
1238.810547	7553.892578
1237.656250	7736.445801
1236.501953	7382.698730
1235.345703	7350.380371
1234.191406	7261.754395
1233.035156	7075.164551
1231.878906	6863.633301
1230.722656	6862.752441
1229.566406	6611.750488
1228.410156	6702.643066
1227.253906	6674.744141
1226.097656	6319.772949
1224.939453	6225.331543
1223.783203	6337.109863
1222.625000	6238.560059
1221.468750	5913.107422
1220.310547	5812.609863
1219.152344	5999.377441
1217.994141	5975.919922
1216.835938	6083.561523
1215.677734	5687.764648
1214.519531	5681.051270
1213.359375	5285.500488
1212.201172	5572.047363
1211.041016	5509.283691
1209.882813	5380.029785
1208.722656	5205.129883
1207.562500	5080.167969
1206.402344	5084.061035
1205.242188	5139.892090
1204.082031	5137.567383
1202.919922	5054.297852
1201.759766	4784.212891
1200.599609	4927.284180
1199.437500	4777.720215
1198.275391	4715.367188
1197.115234	4605.317383
1195.953125	4812.687500
1194.791016	4609.374512
1193.628906	4449.687500
1192.464844	4331.545410
1191.302734	4103.582520
1190.140625	4143.055176
1188.976563	4091.370117
1187.814453	4190.936523
1186.650391	4029.500488
1185.486328	3973.755615
1184.322266	4197.583496
1183.158203	3988.647705
1181.994141	3585.216553
1180.830078	3842.146973
1179.666016	3883.795898
1178.500000	3610.981689
1177.335938	3617.514160
1176.169922	3562.024902
1175.003906	3260.489014
1173.839844	3579.307129
1172.673828	3490.812500
1171.507813	3435.428223
1170.341797	3340.810303
1169.173828	3485.920654
1168.007813	3350.034912
1166.841797	3393.896240
1165.673828	3355.166748
1164.505859	3085.215332
1163.339844	2943.340820
1162.171875	3069.861084
1161.003906	3122.057373
1159.835938	2961.726563
1158.667969	3077.896729
1157.500000	2841.333984
1156.330078	2751.296143
1155.162109	2834.483154
1153.992188	2686.775391
1152.824219	2817.373291
1151.654297	2764.538086
1150.484375	2878.630127
1149.314453	2675.432861
1148.144531	2791.580566
1146.974609	2714.112549
1145.804688	2739.634277
1144.632813	2612.826660
1143.462891	2432.538086
1142.291016	2528.112549
1141.119141	2333.531982
1139.949219	2595.737061
1138.777344	2594.585693
1137.605469	2651.028809
1136.433594	2306.488037
1135.261719	2264.294434
1134.087891	2386.586670
1132.916016	2498.553955
1131.742188	2351.593750
1130.570313	2225.221436
1129.396484	2292.009521
1128.222656	2418.343506
1127.050781	2267.408691
1125.876953	2233.577148
1124.701172	2127.934814
1123.527344	2161.885010
1122.353516	2015.250366
1121.179688	2104.621094
1120.003906	2253.474854
1118.828125	2121.295410
1117.654297	2278.297607
1116.478516	2000.601563
1115.302734	2096.103760
1114.126953	2144.438721
1112.951172	2018.576172
1111.775391	1964.476807
1110.597656	1869.446533
1109.421875	1813.356812
1108.244141	2044.010742
1107.068359	2008.399902
1105.890625	1917.549194
1104.712891	1894.281372
1103.535156	1766.657959
1102.357422	1835.513794
1101.179688	1857.297974
1100.001953	1827.653442
1098.822266	1798.008789
1097.644531	1768.364258
1096.464844	1738.719727
1095.287109	1709.075073
1094.107422	1679.430542
1092.927734	1637.930054
1091.748047	1629.137451
1090.568359	1785.806274
1089.388672	1527.842896
1088.207031	1504.811768
1087.027344	1543.024780
1085.845703	1393.452026
1084.666016	1501.071533
1083.484375	1516.850342
1082.302734	1308.207153
1081.121094	1413.775513
1079.939453	1401.022217
1078.757813	1374.002808
1077.576172	1222.630005
1076.394531	1320.004639
1075.210938	1256.355225
1074.029297	1180.489624
1072.845703	1200.426880
1071.662109	1344.621704
1070.480469	1166.954346
1069.296875	1270.385498
1068.113281	1241.443970
1066.929688	1110.731079
1065.744141	941.410278
1064.560547	1085.521606
1063.375000	1034.276733
1062.191406	789.781189
1061.005859	1080.309937
1059.820313	949.790283
1058.636719	935.196350
1057.451172	723.435913
1056.265625	775.979187
1055.078125	1015.483704
1053.892578	757.091125
1052.707031	768.976440
1051.519531	754.471008
1050.333984	882.112061
1049.146484	703.127686
1047.958984	627.741028
1046.771484	580.797668
1045.583984	870.753540
1044.396484	868.425842
1043.208984	722.059631
1042.019531	482.454803
1040.832031	494.391876
1039.642578	585.420166
1038.455078	554.761597
1037.265625	542.371704
1036.076172	525.932617
1034.886719	531.787964
1033.697266	622.730652
1032.507813	136.345383
1031.318359	488.580322
1030.126953	421.553741
1028.937500	449.687836
1027.746094	655.956543
1026.556641	354.148376
1025.365234	370.149384
1024.173828	519.673035
1022.982422	525.521851
1021.791016	377.659698
1020.599609	308.708374
1019.406250	391.427765
1018.214844	520.594604
1017.021484	358.691620
1015.830078	580.768066
1014.636719	530.027222
1013.443359	519.702209
1012.250000	361.937439
1011.056641	448.566711
1009.863281	403.926758
1008.669922	565.203003
1007.474609	401.485260
1006.281250	399.242859
1005.085938	411.135010
1003.892578	475.453400
1002.697266	406.642365
1001.501953	374.148926
1000.306641	323.514923
999.111328	287.005829
997.916016	276.705444
996.720703	262.373413
995.523438	540.212646
994.328125	219.620544
993.130859	360.395630
991.933594	279.595459
990.736328	321.638794
989.541016	267.015778
988.341797	413.716217
987.144531	332.935547
985.947266	264.249725
984.750000	92.978844
983.550781	316.015167
982.353516	142.769043
981.154297	456.188141
979.955078	196.532288
978.755859	351.024933
977.556641	25.139521
976.357422	366.463806
975.158203	217.463455
973.958984	237.233978
972.757813	66.214348
971.558594	106.066177
970.357422	53.560093
969.158203	93.382210
967.957031	8.765964
966.755859	20.486952
965.554688	186.674896
964.353516	-44.374477
963.150391	147.836212
961.949219	21.124178
960.748047	54.836437
959.544922	-107.903725
958.341797	210.407959
957.140625	-46.520084
955.937500	-32.903572
954.734375	-19.287056
953.531250	-5.670542
952.326172	7.945972
951.123047	21.518236
949.919922	-109.055145
948.714844	-29.429409
947.511719	88.162422
946.306641	61.661957
945.101563	85.168434
943.896484	0.650437
942.691406	104.122437
941.486328	109.575462
940.281250	41.049397
939.074219	-141.378799
937.869141	-121.938812
936.662109	-92.513649
935.457031	-5.196181
934.250000	92.077728
933.042969	9.576527
931.835938	-208.683365
930.628906	-161.374969
929.421875	71.524963
928.212891	32.940819
927.005859	64.174667
925.796875	-94.120895
924.589844	74.718628
923.380859	32.109379
922.171875	-88.263924
920.962891	50.549721
919.753906	63.727863
918.544922	158.590637
917.335938	50.167187
916.125000	142.988968
914.916016	-92.906944
913.705078	212.961502
912.494141	-58.726589
911.285156	109.615242
910.074219	-10.722559
908.863281	-59.392815
907.652344	283.923645
906.439453	149.649597
905.228516	-131.804276
904.017578	-102.933113
902.804688	-14.425523
901.591797	-67.120651
900.380859	116.708893
899.167969	-41.362881
897.955078	-121.904510
896.742188	57.820168
895.527344	-52.533943
894.314453	158.852646
893.101563	-9.120957
891.886719	-30.128090
890.673828	-178.202545
889.458984	78.636307
888.244141	-7.921944
887.029297	189.236771
885.814453	160.170883
884.599609	-65.252602
883.384766	32.599937
882.167969	96.705246
880.953125	10.100471
879.736328	-126.033203
878.519531	-75.873085
877.304688	-45.579697
876.087891	-211.416443
874.871094	76.330139
873.654297	72.860062
872.435547	-205.823883
871.218750	-29.153612
870.001953	-78.197586
868.783203	40.966785
867.564453	-16.022966
866.347656	21.922037
865.128906	-56.852013
863.910156	-3.131286
862.691406	-42.380791
861.472656	-119.201279
860.251953	-57.656815
859.033203	159.943649
857.812500	122.577583
856.593750	-145.943665
855.373047	55.692158
854.152344	36.055702
852.931641	40.092113
851.710938	-44.733932
850.490234	-188.770248
849.269531	69.791580
848.046875	55.964203
846.826172	-149.253784
845.603516	8.503829
844.382813	101.089355
843.160156	16.171547
841.937500	81.079330
840.714844	-5.833933
839.492188	-17.860399
838.267578	133.639130
837.044922	105.774406
835.822266	288.645599
834.597656	75.597847
833.373047	157.943802
832.150391	303.217072
830.925781	196.476028
829.701172	245.212219
828.476563	12.527049
827.250000	246.153992
826.025391	145.275009
824.800781	339.393158
823.574219	151.963440
822.347656	306.642731
821.123047	91.691704
819.896484	267.881622
818.669922	251.416473
817.443359	399.950378
816.216797	279.297638
814.988281	400.226349
813.761719	358.092438
812.533203	363.069855
811.306641	291.448303
810.078125	245.342010
808.849609	403.288330
807.621094	415.968781
806.392578	203.032639
805.164063	307.851837
803.935547	389.070770
802.705078	391.815369
801.476563	461.162384
800.246094	357.992706
799.017578	439.009277
797.787109	173.198227
796.556641	463.754730
795.326172	532.864258
794.095703	406.099823
792.863281	351.791077
791.632813	475.588959
790.402344	303.778168
789.169922	317.897125
787.937500	355.452942
786.705078	365.573425
785.474609	260.253357
784.242188	428.706055
783.007813	340.952667
781.775391	266.866821
780.542969	437.076508
779.308594	360.980988
778.076172	247.743240
776.841797	343.534912
775.607422	224.414490
774.375000	259.557007
773.140625	273.182495
771.904297	323.862946
770.669922	304.216217
769.435547	114.765297
768.199219	299.956726
766.964844	219.736847
765.728516	145.366043
764.494141	104.125877
763.257813	318.282288
762.021484	183.385727
760.785156	338.904877
759.546875	223.468414
758.310547	78.799057
757.074219	128.944519
755.835938	60.230633
754.599609	291.388245
753.361328	72.669609
752.123047	381.540710
750.884766	86.895065
749.646484	165.946411
748.408203	215.745483
747.167969	90.412567
745.929688	217.927490
744.689453	366.756439
743.451172	258.833588
742.210938	269.498901
740.970703	147.949478
739.730469	174.095383
738.490234	324.542023
737.250000	164.071564
736.009766	275.540405
734.767578	353.921692
733.527344	127.388977
732.285156	201.803635
731.044922	229.562149
729.802734	263.096863
728.560547	240.309692
727.318359	79.751350
726.076172	264.461823
724.832031	220.235046
723.589844	214.754471
722.345703	189.853989
721.103516	190.111862
719.859375	232.969193
718.615234	196.326416
717.371094	332.073151
716.126953	326.332458
714.882813	252.770264
713.638672	306.986206
712.394531	159.802505
711.148438	347.492828
709.902344	235.107559
708.658203	254.290115
707.412109	321.793701
706.166016	300.254883
704.919922	437.263428
703.673828	390.489319
702.427734	212.227432
701.179688	389.647400
699.933594	296.396240
698.685547	185.748672
697.437500	160.100510
696.191406	252.241379
694.943359	388.730804
693.695313	559.886597
692.447266	219.334869
691.197266	398.100098
689.949219	314.287445
688.699219	296.070007
687.451172	258.520935
686.201172	267.238892
684.951172	185.266830
683.701172	28.079882
682.451172	376.016449
681.201172	361.405212
679.951172	48.033783
678.701172	274.262543
677.449219	380.925934
676.199219	169.675491
674.947266	355.195557
673.695313	421.223083
672.443359	221.502304
671.191406	223.922913
669.939453	226.299408
668.687500	376.798859
667.433594	352.131104
666.181641	356.279877
664.927734	293.073975
663.675781	99.087227
662.421875	262.726257
661.167969	345.531525
659.914063	247.606552
658.660156	368.732727
657.406250	435.979492
656.150391	422.485748
654.896484	433.919128
653.640625	268.646240
652.384766	274.260773
651.130859	419.957184
649.875000	371.720886
648.619141	499.998260
647.361328	474.705200
646.105469	533.779724
644.849609	471.964020
643.591797	578.876770
642.335938	415.378418
641.078125	307.486633
639.820313	421.914886
638.562500	315.893738
637.304688	401.458527
636.046875	454.388672
634.789063	434.480164
633.531250	420.283020
632.271484	432.854919
631.011719	474.095337
629.753906	348.770203
628.494141	363.140167
627.234375	364.072662
625.974609	410.874512
624.714844	449.969635
623.455078	246.156128
622.193359	438.141602
620.933594	538.264160
619.671875	460.565765
618.410156	317.884064
617.148438	343.345276
615.888672	502.476685
614.625000	499.170593
613.363281	297.228485
612.101563	307.247345
610.839844	284.772308
609.576172	267.991943
608.314453	300.796265
607.050781	266.772095
605.787109	123.989601
604.523438	204.370361
603.259766	265.616272
601.996094	269.605927
600.730469	235.431824
599.466797	248.882309
598.203125	283.253021
596.937500	264.227051
595.671875	106.109947
594.406250	-8.181075
593.140625	18.449440
591.875000	195.448517
590.609375	176.276840
589.343750	99.978119
588.076172	105.498299
586.810547	72.930084
585.542969	76.481949
584.275391	49.567368
583.009766	49.252342
581.742188	-8.136299
580.472656	27.608112
579.205078	13.892395
577.937500	-11.253757
576.667969	-4.125062
575.400391	20.067442
574.130859	118.292099
572.861328	53.137169
571.593750	-76.579895
570.324219	127.823334
569.052734	75.891449
567.783203	-89.911194
566.513672	-147.537735
565.242188	-53.415112
563.972656	-167.987869
562.701172	-138.429581
561.429688	122.404602
560.160156	-88.906197
558.888672	-82.207672
557.615234	-60.380970
556.343750	-87.850090
555.072266	117.670731
553.798828	4.891403
552.527344	-26.443840
551.253906	-97.558121
549.980469	43.348602
548.707031	-192.471848
547.433594	101.634682
546.160156	145.860931
544.886719	-21.827412
543.611328	-134.633804
542.337891	9.764278
541.062500	103.035202
539.789063	-92.981285
538.513672	47.480736
537.238281	-97.482887
535.962891	-87.485046
534.687500	-66.178200
533.410156	-1.461352
532.134766	70.768349
530.857422	-51.526787
529.582031	65.952026
528.304688	-20.479006
527.027344	132.766006
525.750000	-25.383835
524.472656	-77.855362
523.195313	-190.683334
521.917969	-69.649559
520.638672	-97.632309
519.361328	55.355167
518.082031	6.593014
516.802734	29.442263
515.523438	-190.790512
514.244141	-134.037506
512.964844	-113.106873
511.685547	-9.338033
510.406250	-171.102142
509.125000	-74.921684
507.843750	-23.961321
506.564453	-5.019927
505.283203	-196.833878
504.001953	-112.055069
502.720703	-138.290009
501.439453	-140.080215
500.158203	-79.832962
498.875000	-128.654846
497.593750	-271.445099
496.310547	10.509876
495.027344	8.641319
493.746094	-89.039413
492.462891	-81.515556
491.179688	-15.786492
489.894531	-2.664442
488.611328	14.204938
487.328125	8.537765
486.042969	51.655598
484.759766	32.839100
483.474609	-66.646538
482.189453	-49.812332
480.904297	66.403702
479.619141	100.075790
478.333984	98.114571
477.046875	17.426544
475.761719	214.120087
474.474609	260.845612
473.189453	64.022026
471.902344	178.184540
470.615234	172.454468
469.328125	86.215118
468.041016	161.001175
466.753906	194.585587
465.464844	78.445702
464.177734	271.076569
462.888672	211.090591
461.599609	278.316101
460.312500	186.569733
459.023438	-90.249008
457.734375	113.475342
456.443359	320.867645
455.154297	117.068344
453.865234	188.007019
452.574219	313.099548
451.285156	161.727585
449.994141	98.183380
448.703125	226.983673
447.412109	286.676819
446.121094	234.368805
444.830078	223.145096
443.537109	120.506668
442.246094	165.292953
440.953125	238.050339
439.662109	36.663109
438.369141	217.583969
437.076172	180.343185
435.783203	85.348511
434.490234	120.849457
433.197266	-28.105610
431.902344	57.727642
430.609375	65.322044
429.314453	158.589615
428.019531	141.987228
426.726563	77.010689
425.431641	21.377853
424.136719	174.207611
422.839844	40.465191
421.544922	139.327133
420.250000	98.677567
418.953125	-20.045525
417.658203	97.428932
416.361328	66.162941
415.064453	98.122826
413.767578	102.219246
412.470703	104.479042
411.173828	-56.714973
409.875000	166.641327
408.578125	-13.029640
407.279297	128.594879
405.980469	270.194824
404.683594	122.229271
403.384766	37.433777
402.085938	97.415894
400.787109	166.679993
399.486328	119.095253
398.187500	-8.182691
396.886719	-7.455934
395.587891	186.094070
394.287109	68.223969
392.986328	141.296860
391.685547	292.193054
390.384766	107.768478
389.083984	12.342881
387.783203	68.832710
386.480469	36.460114
385.179688	215.169800
383.876953	-5.938047
382.574219	174.631058
381.271484	35.084576
379.968750	-10.034142
378.666016	140.951080
377.363281	173.567993
376.058594	-34.152287
374.755859	63.256538
373.451172	77.493095
372.148438	84.372086
370.843750	48.789616
369.539063	-47.703754
368.234375	33.183346
366.929688	69.761803
365.623047	-163.198563
364.318359	-117.291016
363.011719	91.057983
361.707031	15.191437
360.400391	-66.145027
359.093750	25.990240
357.787109	164.243027
356.480469	-62.634403
355.171875	75.668228
353.865234	-23.835958
352.558594	182.689621
351.250000	162.525162
349.941406	48.444817
348.632813	56.027920
347.324219	85.753220
346.015625	28.962744
344.707031	-108.775436
343.398438	2.090162
342.087891	-49.003147
340.779297	-20.906416
339.468750	-112.365753
338.158203	29.872301
336.849609	-76.188087
335.539063	16.433916
334.226563	-8.598280
332.916016	104.289673
331.605469	49.934280
330.292969	41.584404
328.982422	-7.138196
327.669922	70.952637
326.357422	29.681444
325.044922	30.706476
323.732422	-54.514221
322.419922	194.430511
321.107422	78.102219
319.792969	-93.187279
318.480469	-55.216854
317.166016	-70.409691
315.851563	24.492670
314.537109	-80.467842
313.222656	131.832733
311.908203	-13.344952
310.593750	-83.282730
309.277344	-180.634644
307.962891	-232.105103
306.646484	-94.836014
305.332031	-76.616081
304.015625	-21.732988
302.699219	-58.364178
301.382813	-138.869232
300.066406	2.151038
298.748047	49.845234
297.431641	22.555124
296.113281	-187.601013
294.796875	-30.034149
293.478516	-108.361137
292.160156	-73.265945
290.841797	9.385844
289.523438	-43.191299
288.203125	41.342026
286.884766	-44.022224
285.564453	-131.139511
284.246094	90.460846
282.925781	-78.736580
281.605469	-17.798244
280.285156	88.791931
278.964844	65.806862
277.644531	-6.398540
276.322266	60.117031
275.001953	115.698769
273.679688	-71.256462
272.359375	28.164627
271.037109	118.475281
269.714844	-11.767179
268.392578	80.411148
267.070313	86.949944
265.746094	44.333717
264.423828	16.333397
263.099609	121.324982
261.777344	-90.523376
260.453125	-205.774994
259.128906	-64.305283
257.804688	133.559174
256.480469	107.572784
255.156250	-80.291779
253.830078	4.780194
252.505859	28.008831
251.179688	34.892689
249.855469	10.885596
248.529297	-42.169582
247.203125	-37.031658
245.876953	197.068207
244.548828	93.201080
243.222656	25.710485
241.896484	27.268461
240.568359	14.318592
239.240234	84.895172
237.914063	-76.878731
236.585938	64.485878
235.257813	169.520203
233.927734	22.364016
232.599609	114.684540
231.271484	-79.556755
229.941406	-70.646469
228.613281	-23.673357
227.283203	64.975433
225.953125	-51.190166
224.623047	-15.120117
223.292969	58.974846
221.960938	107.682373
220.630859	-4.815455
219.300781	-44.859756
217.968750	96.130592
216.636719	-83.310280
215.304688	178.851776
213.972656	98.936012
212.640625	-38.861378
211.308594	92.862762
209.976563	-68.444000
208.642578	25.220316
207.310547	88.084831
205.976563	-6.347353
204.642578	9.452899
203.308594	-103.072441
201.974609	-116.241707
200.640625	155.924103
199.306641	7.188577
197.970703	57.069485
196.636719	215.190552
195.300781	-40.110065
193.964844	-78.828987
192.630859	-128.421555
191.294922	87.122620
189.957031	-112.298691
188.621094	232.872025
187.285156	31.552616
185.947266	19.511982
184.611328	-5.219213
183.273438	119.549049
181.935547	-49.485638
180.597656	-60.025227
179.259766	-103.068581
177.921875	-27.340694
176.582031	190.499802
175.244141	93.144600
173.904297	-34.873756
172.566406	36.785828
171.226563	198.268936
169.886719	-43.357021
168.546875	9.940852
167.205078	54.108334
165.865234	-78.058510
164.525391	-16.171457
163.183594	122.842445
161.841797	-86.934578
160.501953	-77.592888
159.160156	28.599075
157.818359	55.579910
156.476563	103.944450
155.132813	-14.834702
153.791016	60.127117
152.447266	68.488586
151.105469	-63.286201
149.761719	7.535507
148.417969	-0.775530
147.074219	121.648956
145.730469	73.491631
144.386719	-51.936520
143.041016	33.986431
141.697266	157.309906
140.351563	194.363815
139.005859	23.368074
137.660156	-61.812984
136.314453	-118.539223
134.968750	125.336250
133.623047	-69.729187
132.277344	21.419016
130.929688	-132.903183
129.583984	6.024451
128.236328	-66.469635
126.888672	105.839714
125.541016	236.678925
124.193359	59.644894
122.845703	225.627457
121.496094	-10.920704
120.148438	-4.634234
118.798828	212.171310
117.451172	276.744720
116.101563	-0.192007
114.751953	140.523819
113.402344	46.950821
112.052734	190.498108
110.701172	387.176849
109.351563	528.118958
108.000000	206.511200
106.650391	55.915100
105.298828	-50.433090
103.947266	-82.233238
